id,x,y,z,yaw,pitch,roll
1,1717.18,1014.31,-1.25727,-2.19373,-0.073201,0.0487064
2,1716.93,1014,-1.20134,-2.19436,-0.0658564,0.0424439
3,1716.72,1013.76,-1.10336,-2.19798,-0.0670045,0.0407224
4,1716.47,1013.47,-0.966858,-2.19923,-0.0673878,0.0356737
5,1716.29,1013.16,-0.96435,-2.20028,-0.0670749,0.0374577
6,1716.14,1012.83,-1.12582,-2.19994,-0.0602412,0.040342
7,1715.94,1012.55,-1.12653,-2.20212,-0.0615002,0.0408797
8,1715.73,1012.29,-1.09989,-2.20243,-0.0623588,0.0382329
9,1715.52,1012.02,-1.08593,-2.20332,-0.0626975,0.0388924
10,1715.3,1011.71,-1.07174,-2.20291,-0.0619846,0.0383545
11,1715.11,1011.46,-1.05872,-2.20445,-0.0636485,0.0403457
12,1714.84,1011.19,-0.974507,-2.20478,-0.0651776,0.03497
13,1714.65,1010.86,-1.01459,-2.20575,-0.0660715,0.0398489
14,1714.46,1010.58,-1.11074,-2.2058,-0.062757,0.0376661
15,1714.25,1010.31,-1.06032,-2.2077,-0.0649214,0.0384616
16,1713.97,1010.04,-1.03984,-2.20765,-0.0706035,0.0241293
17,1713.73,1009.75,-1.03654,-2.20837,-0.0753434,0.025178
18,1713.51,1009.48,-1.04036,-2.20889,-0.0754175,0.0198071
19,1713.31,1009.24,-1.02392,-2.20922,-0.0709437,0.0148317
20,1713.1,1008.95,-1.09561,-2.20907,-0.0664461,0.0131152
21,1712.89,1008.66,-1.06871,-2.20887,-0.0670537,0.0108589
22,1712.69,1008.38,-1.09899,-2.21003,-0.0668575,0.0127122
23,1712.48,1008.11,-1.07732,-2.21018,-0.0672004,0.0124573
24,1712.21,1007.87,-0.935712,-2.20992,-0.0717499,-0.00275274
25,1712,1007.6,-0.907371,-2.21025,-0.073379,-0.00389804
26,1711.78,1007.31,-0.942357,-2.2104,-0.0746581,-0.00191607
27,1711.58,1007.05,-0.893435,-2.21108,-0.0751374,-0.0034985
28,1711.37,1006.84,-0.559907,-2.21112,-0.0695497,-0.0156461
29,1711.17,1006.61,-0.521725,-2.2119,-0.0712068,-0.0167458
30,1710.97,1006.34,-0.444054,-2.21158,-0.070896,-0.0203615
31,1710.76,1006.09,-0.394309,-2.21149,-0.0714805,-0.0227565
32,1710.56,1005.87,-0.336507,-2.21172,-0.0717231,-0.0256239
33,1710.37,1005.59,-0.315452,-2.21056,-0.0727452,-0.0260441
34,1710.16,1005.32,-0.328918,-2.2099,-0.0737132,-0.0267605
35,1709.95,1005.05,-0.316664,-2.20872,-0.0742303,-0.0274884
36,1709.75,1004.81,-0.298105,-2.20724,-0.0735388,-0.0290474
37,1709.56,1004.54,-0.339775,-2.20361,-0.0684602,-0.0353665
38,1709.38,1004.28,-0.44654,-2.20195,-0.0645555,-0.034943
39,1709.2,1004.02,-0.475745,-2.20047,-0.0637557,-0.0352783
40,1709,1003.77,-0.504105,-2.19895,-0.0634774,-0.0352326
41,1708.82,1003.5,-0.520687,-2.19753,-0.0629595,-0.0325749
42,1708.48,1003.03,-0.474227,-2.19446,-0.0599142,-0.0344192
43,1708.32,1002.77,-0.442425,-2.19419,-0.0608501,-0.0277345
44,1708.13,1002.53,-0.406728,-2.19219,-0.0625736,-0.0272062
45,1707.94,1002.28,-0.39176,-2.19077,-0.0629665,-0.0315095
46,1707.77,1001.95,-0.562944,-2.18766,-0.0601187,-0.0215285
47,1707.62,1001.72,-0.520903,-2.18539,-0.0568384,-0.0215956
48,1707.44,1001.47,-0.506396,-2.18305,-0.0569567,-0.0226356
49,1707.28,1001.26,-0.478931,-2.18189,-0.0572103,-0.0250067
50,1707.07,1001.03,-0.462888,-2.17938,-0.0597332,-0.0305561
51,1706.89,1000.78,-0.459602,-2.17775,-0.0607572,-0.029831
52,1706.73,1000.56,-0.477576,-2.17598,-0.0614513,-0.0285157
53,1706.59,1000.34,-0.446638,-2.17485,-0.0628315,-0.0285473
54,1706.43,1000.12,-0.427434,-2.17226,-0.0630829,-0.0306052
55,1706.25,999.878,-0.417357,-2.17008,-0.064734,-0.0297327
56,1706.08,999.67,-0.383222,-2.16781,-0.064624,-0.0333071
57,1705.91,999.427,-0.340857,-2.16683,-0.0661277,-0.0328411
58,1705.78,999.222,-0.339757,-2.16462,-0.0660664,-0.0329503
59,1705.6,998.963,-0.325064,-2.16363,-0.0677107,-0.0301828
60,1705.47,998.743,-0.33977,-2.16124,-0.0673772,-0.0272939
61,1705.32,998.518,-0.324985,-2.16007,-0.0663756,-0.0246143
62,1705.18,998.29,-0.29906,-2.15781,-0.0650879,-0.0210924
63,1705.09,998.081,-0.286819,-2.15734,-0.0605738,-0.00958989
64,1704.96,997.861,-0.289383,-2.15496,-0.0609145,-0.00781364
65,1704.81,997.642,-0.304158,-2.15373,-0.0603393,-0.00872859
66,1704.62,997.367,-0.312608,-2.151,-0.0610105,-0.0100173
67,1704.49,997.154,-0.314099,-2.14975,-0.0610588,-0.00987402
68,1704.33,996.901,-0.302094,-2.14719,-0.0618378,-0.010577
69,1704.18,996.696,-0.286098,-2.14598,-0.0625818,-0.0113721
70,1704.01,996.464,-0.270712,-2.14387,-0.0639689,-0.0135977
71,1703.87,996.234,-0.24487,-2.1428,-0.0645153,-0.0147583
72,1703.73,995.981,-0.26664,-2.14071,-0.0649765,-0.0126042
73,1703.58,995.763,-0.235748,-2.13979,-0.0661304,-0.0128943
74,1703.48,995.552,-0.306436,-2.13831,-0.0649353,-0.00728981
75,1703.36,995.263,-0.306065,-2.13707,-0.0599953,0.0100197
76,1703.2,995.042,-0.244869,-2.13484,-0.0611195,0.00791511
77,1702.96,994.489,-0.630404,-2.12836,-0.0533518,0.0141528
78,1702.79,994.135,-0.817802,-2.12731,-0.0575889,0.0290011
79,1702.66,993.904,-0.834918,-2.12654,-0.0575765,0.0296135
80,1702.49,993.659,-0.79988,-2.127,-0.0583148,0.0276145
81,1702.34,993.426,-0.78248,-2.12693,-0.0583029,0.0283779
82,1702.17,993.167,-0.779411,-2.1274,-0.0590641,0.028361
83,1702,992.923,-0.743591,-2.12869,-0.0598702,0.0260172
84,1701.84,992.672,-0.730771,-2.12923,-0.0611217,0.0272498
85,1701.65,992.42,-0.675024,-2.13062,-0.0647226,0.0204778
86,1701.52,992.136,-0.727988,-2.12995,-0.0608736,0.0275692
87,1701.39,991.777,-0.829745,-2.12112,-0.0555154,0.0243858
88,1701.19,991.5,-0.804875,-2.12181,-0.0559651,0.0213518
89,1701.09,991.303,-0.802332,-2.12344,-0.0566302,0.0250694
90,1700.96,991.083,-0.776943,-2.12537,-0.0571855,0.0281375
91,1700.79,990.821,-0.752835,-2.12721,-0.0569433,0.0291586
92,1700.59,990.507,-0.736432,-2.12866,-0.0579971,0.0287222
93,1700.4,990.224,-0.757253,-2.13064,-0.0580506,0.030753
94,1700.28,990.008,-0.752599,-2.13322,-0.0581703,0.0327028
95,1700.07,989.7,-0.869217,-2.13297,-0.0493581,0.0195506
96,1699.92,989.484,-0.855353,-2.13451,-0.0503469,0.01824
97,1699.75,989.227,-0.844619,-2.13796,-0.0509939,0.0206982
98,1699.62,989.027,-0.828345,-2.13967,-0.0515381,0.0211553
99,1699.45,988.769,-0.821719,-2.14264,-0.0525798,0.0205798
100,1699.26,988.464,-0.805143,-2.14433,-0.0532955,0.0242877
101,1699.09,988.22,-0.763137,-2.14737,-0.0542648,0.0231035
102,1698.95,988.008,-0.789999,-2.14915,-0.0534805,0.0247076
103,1698.82,987.715,-0.687987,-2.15194,-0.0468022,0.0379413
104,1698.69,987.49,-0.712769,-2.15267,-0.0466222,0.0415565
105,1698.52,987.259,-0.711747,-2.15592,-0.0478317,0.0424759
106,1698.29,987.017,-0.650338,-2.15313,-0.035118,0.0156303
107,1698.13,986.803,-0.649133,-2.15677,-0.0347359,0.00889504
108,1697.97,986.656,-0.449204,-2.15768,-0.034247,-0.00408633
109,1697.81,986.42,-0.435329,-2.16065,-0.0360565,-0.00276857
110,1697.65,986.204,-0.414634,-2.16265,-0.0366303,-0.00294003
111,1697.46,985.907,-0.38034,-2.16515,-0.0342938,-0.000291157
112,1697.33,985.646,-0.44861,-2.16662,-0.0319067,0.00802328
113,1697.18,985.499,-0.374683,-2.16858,-0.0301136,-0.0032058
114,1697.05,985.304,-0.408292,-2.17004,-0.0318167,0.00114271
115,1696.88,985.068,-0.407371,-2.17186,-0.0332307,0.000325856
116,1696.73,984.842,-0.422741,-2.17374,-0.032922,0.00145996
117,1696.52,984.567,-0.429099,-2.17626,-0.0327955,-0.00246145
118,1696.45,984.453,-0.39609,-2.17838,-0.0346874,0.00240894
119,1696.21,984.111,-0.412975,-2.18077,-0.0337606,7.89005e-06
120,1696.12,983.977,-0.430401,-2.18198,-0.0340961,0.00205444
121,1695.92,983.712,-0.399696,-2.18363,-0.0343776,-0.00175231
122,1695.87,983.649,-0.393794,-2.18569,-0.0338354,-0.000186989
123,1695.66,983.347,-0.411726,-2.18765,-0.0360108,0.000822922
124,1695.54,983.161,-0.406422,-2.18835,-0.0362548,-0.00187134
125,1695.33,982.891,-0.41072,-2.19005,-0.0368314,-0.00246283
126,1695.24,982.746,-0.407502,-2.19026,-0.03681,-0.00199162
127,1695.08,982.562,-0.39185,-2.19196,-0.0376141,-0.00249781
128,1694.89,982.284,-0.387878,-2.1916,-0.0385646,-0.00315809
129,1694.76,982.11,-0.371797,-2.1926,-0.038912,-0.00241048
130,1694.66,981.982,-0.352203,-2.19323,-0.0389255,-0.00275327
131,1694.5,981.737,-0.384561,-2.19467,-0.0351325,0.00435704
132,1694.44,981.581,-0.442625,-2.19613,-0.0297756,0.0125038
133,1694.23,981.322,-0.415075,-2.19646,-0.0278294,0.00862394
134,1694.1,981.17,-0.419894,-2.19843,-0.0263315,0.00452951
135,1693.94,980.955,-0.409201,-2.19845,-0.0263087,0.00347419
136,1693.78,980.75,-0.400708,-2.19962,-0.027108,0.00443692
137,1693.67,980.666,-0.381103,-2.20197,-0.0281371,0.00438071
138,1693.52,980.489,-0.375613,-2.20309,-0.0284846,0.0034797
139,1693.34,980.254,-0.399388,-2.20429,-0.0304569,0.00473626
140,1693.23,980.152,-0.375443,-2.20547,-0.030627,0.00362939
141,1693.05,979.876,-0.396207,-2.2046,-0.0325791,0.00366967
142,1692.93,979.726,-0.38475,-2.20416,-0.0324945,0.00367365
143,1692.79,979.531,-0.440263,-2.20414,-0.0345467,0.00530331
144,1692.62,979.313,-0.449559,-2.20367,-0.0354298,0.00557327
145,1692.49,979.006,-0.440347,-2.20583,-0.0473876,0.029301
146,1692.32,978.796,-0.442321,-2.20726,-0.0493,0.0325567
147,1692.2,978.64,-0.467934,-2.20665,-0.0487704,0.0323819
148,1692.05,978.419,-0.467637,-2.20627,-0.0495534,0.0330847
149,1692.02,978.378,-0.458214,-2.20492,-0.0495205,0.0329484
150,1691.89,978.164,-0.433936,-2.20308,-0.0496688,0.0302635
151,1691.66,977.841,-0.435298,-2.20125,-0.0503318,0.0313226
152,1691.52,977.687,-0.435351,-2.19999,-0.0513438,0.0323525
153,1691.35,977.437,-0.415954,-2.19881,-0.0521834,0.0326154
154,1691.22,977.31,-0.387813,-2.1982,-0.0517068,0.0312692
155,1691.1,977.097,-0.373282,-2.19641,-0.0543762,0.0359943
156,1691.1,977.15,-0.365157,-2.19468,-0.0523244,0.0312406
157,1690.8,976.756,-0.226629,-2.19264,-0.0400424,0.0251812
158,1690.61,976.504,-0.274407,-2.19209,-0.0390815,0.0258852
159,1690.53,976.327,-0.310485,-2.18849,-0.0380612,0.0280027
160,1690.33,976.112,-0.338917,-2.18832,-0.0376704,0.0251123
161,1690.24,975.953,-0.340199,-2.18612,-0.038546,0.0263182
162,1690.07,975.738,-0.483078,-2.18337,-0.0347566,0.0218672
163,1690.08,975.715,-0.505169,-2.18011,-0.0331107,0.0217376
164,1689.86,975.427,-0.545211,-2.17885,-0.0324366,0.0218969
165,1689.72,975.2,-0.523629,-2.17644,-0.0310571,0.0200474
166,1689.68,975.137,-0.545947,-2.17404,-0.030481,0.0187622
167,1689.44,974.802,-0.48381,-2.17166,-0.0317654,0.0172769
168,1689.31,974.614,-0.481381,-2.16921,-0.0303688,0.0124727
169,1689.2,974.436,-0.495547,-2.16781,-0.0317519,0.0155397
170,1689.09,974.263,-0.458414,-2.16531,-0.0322926,0.0129464
171,1688.86,973.913,-0.464275,-2.16348,-0.032103,0.0128263
172,1688.78,973.805,-0.483637,-2.16165,-0.0314103,0.0132829
173,1688.57,973.513,-0.462131,-2.16041,-0.0319822,0.0152286
174,1688.5,973.432,-0.43725,-2.15827,-0.0286904,0.0138719
175,1688.3,973.142,-0.347287,-2.15565,-0.0244223,0.0128999
176,1688.22,972.97,-0.311588,-2.15358,-0.0285019,0.0131871
177,1688.1,972.821,-0.284218,-2.15102,-0.0308897,0.0157535
178,1687.92,972.574,-0.305769,-2.15018,-0.0312552,0.0152654
179,1687.76,972.343,-0.30219,-2.14941,-0.0311948,0.0166944
180,1687.62,972.151,-0.305964,-2.14895,-0.0333506,0.016581
181,1687.48,971.92,-0.316762,-2.14718,-0.0342286,0.0165324
182,1687.33,971.753,-0.353034,-2.14609,-0.0311035,0.0112097
183,1687.2,971.623,-0.491163,-2.14247,-0.0207237,-0.00744403
184,1687.09,971.456,-0.487431,-2.14108,-0.0216096,-0.0072457
185,1686.95,971.224,-0.459303,-2.14003,-0.0225656,-0.00921198
186,1686.84,971.04,-0.445917,-2.13806,-0.0254287,-0.0049886
187,1686.7,970.761,-0.285116,-2.1404,-0.0354806,0.00965596
188,1686.63,970.625,-0.322981,-2.13651,-0.0333917,0.00797016
189,1686.49,970.441,-0.315167,-2.13522,-0.0347405,0.00873408
190,1686.27,970.171,-0.285926,-2.13813,-0.0386794,0.00940817
191,1686.16,970.018,-0.262564,-2.13611,-0.0429985,0.0119387
192,1686.05,969.876,-0.237917,-2.13571,-0.0445476,0.0109599
193,1685.94,969.654,-0.188628,-2.13512,-0.0485909,0.0145446
194,1685.88,969.121,-0.30705,-2.14926,-0.0483115,0.00821526
195,1685.8,968.984,-0.306942,-2.1469,-0.0480739,0.00895066
196,1685.67,968.787,-0.299146,-2.14679,-0.0498256,0.00860851
197,1685.55,968.648,-0.303311,-2.14462,-0.0493518,0.00836212
198,1685.47,968.49,-0.284272,-2.14351,-0.0510586,0.00839659
199,1685.35,968.308,-0.280873,-2.14257,-0.0516448,0.00851693
200,1685.21,968.139,-0.296749,-2.14173,-0.050168,0.00783893
201,1685.13,967.958,-0.313288,-2.14025,-0.0511608,0.008666
202,1685.04,967.813,-0.31158,-2.13893,-0.0505133,0.00773373
203,1684.91,967.617,-0.298019,-2.13761,-0.052145,0.00756794
204,1684.8,967.426,-0.287065,-2.13679,-0.0534701,0.00859763
205,1684.66,967.231,-0.326173,-2.13634,-0.0536152,0.00845957
206,1684.59,967.102,-0.374192,-2.13469,-0.0518761,0.00801326
207,1684.45,966.916,-0.382872,-2.13281,-0.0527331,0.00624433
208,1684.31,966.724,-0.423531,-2.13289,-0.0516378,0.00491634
209,1684.2,966.554,-0.389816,-2.13082,-0.052119,0.00517916
210,1684.08,966.363,-0.399488,-2.13026,-0.0536224,0.00606639
211,1684.01,966.211,-0.247575,-2.12796,-0.0527718,0.00927071
212,1683.9,966.055,-0.26462,-2.12694,-0.0518207,0.0086363
213,1683.77,965.855,-0.597372,-2.12628,-0.041648,0.00223169
214,1683.67,965.715,-0.581513,-2.12492,-0.0417016,-0.000405968
215,1683.6,965.53,-0.565943,-2.12234,-0.0430491,0.00275232
216,1683.43,965.335,-0.55872,-2.12229,-0.043,0.00135359
217,1683.33,965.138,-0.552052,-2.12067,-0.0443927,0.00260802
218,1683.22,964.979,-0.541698,-2.12018,-0.0443691,0.00114289
219,1683.11,964.784,-0.563863,-2.11826,-0.044479,0.000296901
220,1682.95,964.586,-0.546671,-2.11811,-0.0466807,0.000754883
221,1682.87,964.408,-0.52548,-2.11514,-0.0454895,0.00128116
222,1682.74,964.215,-0.691713,-2.11595,-0.0397122,0.00705293
223,1682.64,964,-0.71177,-2.11375,-0.0402199,0.00795512
224,1682.52,963.777,-0.78966,-2.11361,-0.0423713,0.00820266
225,1682.35,963.551,-0.816765,-2.11308,-0.0414279,0.00626776
226,1682.25,963.344,-0.855769,-2.11187,-0.042263,0.00565556
227,1682.08,963.094,-0.835316,-2.1121,-0.0426773,0.00608865
228,1681.98,962.903,-0.855795,-2.11011,-0.0408836,0.00662559
229,1681.84,962.666,-0.863576,-2.10971,-0.0407595,0.00571073
230,1681.7,962.428,-0.861316,-2.10954,-0.0420718,0.00684727
231,1681.57,962.227,-0.857047,-2.10985,-0.0414887,0.00660668
232,1681.41,961.98,-0.875502,-2.10982,-0.0425936,0.00442032
233,1681.28,961.763,-0.823157,-2.10934,-0.0440271,0.00526446
234,1681.13,961.504,-0.819084,-2.10938,-0.0442576,0.00649985
235,1680.99,961.274,-0.816739,-2.1084,-0.0463947,0.0064092
236,1680.87,961.052,-0.82676,-2.10812,-0.0464972,0.00680524
237,1680.72,960.803,-0.870705,-2.10808,-0.0423512,0.00922347
238,1680.6,960.584,-0.764013,-2.10784,-0.041474,0.0131937
239,1680.49,960.367,-0.79216,-2.10698,-0.0395711,0.0141202
240,1680.32,960.118,-0.722498,-2.10741,-0.0415621,0.0123205
241,1680.17,959.858,-0.679925,-2.10817,-0.0419662,0.0128946
242,1680.03,959.601,-0.69212,-2.10816,-0.0409231,0.0102887
243,1679.96,959.393,-0.608858,-2.10719,-0.0432699,0.0104293
244,1679.74,959.079,-0.579004,-2.10895,-0.0453674,0.00737315
245,1679.5,959.107,-0.56032,-2.11186,-0.00583483,-0.0369979
246,1679.39,958.893,-0.548656,-2.11288,-0.00193956,-0.0347827
247,1679.24,958.675,-0.53552,-2.11201,-0.00202114,-0.0345818
248,1679.07,958.4,-0.516595,-2.11352,-0.00254064,-0.0363477
249,1678.93,958.153,-0.446191,-2.11274,-0.00806913,-0.0383429
250,1678.77,957.916,-0.500918,-2.11376,-0.0112755,-0.0391772
251,1678.61,957.71,-0.540378,-2.11524,-0.0148774,-0.0380127
252,1678.49,957.494,-0.551917,-2.11634,-0.0180945,-0.0389537
253,1678.36,957.314,-0.604566,-2.11816,-0.0179844,-0.0388111
254,1678.2,957.058,-0.437502,-2.11787,-0.0270319,-0.0369508
255,1678.04,956.801,-0.312199,-2.11896,-0.03121,-0.0373529
256,1677.89,956.599,-0.281047,-2.11945,-0.0310242,-0.036812
257,1677.74,956.331,-0.288714,-2.12056,-0.0322907,-0.0372762
258,1677.63,956.125,-0.280652,-2.12248,-0.0323572,-0.039738
259,1677.48,955.838,-0.289284,-2.1254,-0.0318961,-0.0407449
260,1677.34,955.563,-0.256238,-2.12512,-0.0331123,-0.0369318
261,1677.16,955.287,-0.249287,-2.12535,-0.0336389,-0.036019
262,1677.01,955.041,-0.231505,-2.12483,-0.0361422,-0.0335445
263,1676.84,954.797,-0.214819,-2.1245,-0.0384693,-0.0324876
264,1676.69,954.6,-0.227133,-2.12553,-0.0385088,-0.0331703
265,1676.51,954.362,-0.208135,-2.12606,-0.0428945,-0.0323324
266,1676.37,954.106,-0.160858,-2.12576,-0.045333,-0.0300547
267,1676.23,953.87,-0.129662,-2.12649,-0.0473991,-0.0287691
268,1676.09,953.644,-0.0861738,-2.12632,-0.0502732,-0.0302065
269,1675.95,953.391,-0.11029,-2.12695,-0.0520501,-0.0308693
270,1675.81,953.183,-0.144252,-2.12832,-0.051591,-0.0300326
271,1675.67,952.944,-0.164543,-2.12798,-0.0507786,-0.0300715
272,1675.53,952.778,-0.188328,-2.12729,-0.0496402,-0.0303051
273,1675.37,952.541,-0.171148,-2.128,-0.0503724,-0.0291922
274,1675.21,952.325,-0.147287,-2.12712,-0.051026,-0.0292339
275,1675.08,952.027,0.115214,-2.12848,-0.0520832,-0.0188236
276,1674.94,951.832,0.167698,-2.12708,-0.0526789,-0.0188007
277,1674.78,951.605,0.134429,-2.12642,-0.0516979,-0.0200663
278,1674.65,951.415,0.122231,-2.12552,-0.0510131,-0.0213422
279,1674.49,951.149,0.0832443,-2.12312,-0.0525073,-0.0209118
280,1674.37,950.857,-0.12422,-2.12197,-0.0548148,-0.00725513
281,1674.25,950.617,-0.132252,-2.11815,-0.0563823,-0.00527266
282,1674.12,950.434,-0.109252,-2.11422,-0.0543578,-0.00680663
283,1673.96,950.11,-0.0516785,-2.10714,-0.0575566,-0.00663077
284,1673.8,949.894,-0.044601,-2.10234,-0.0558175,-0.00616297
285,1673.7,949.706,-0.071841,-2.09391,-0.042072,-0.00871074
286,1673.6,949.44,-0.0911098,-2.08839,-0.0385876,0.0071024
287,1673.51,949.192,-0.0797244,-2.07767,-0.0394216,0.00794941
288,1673.36,948.986,-0.0782486,-2.07219,-0.0412794,0.00858214
289,1673.21,948.694,-0.0472379,-2.06158,-0.040719,0.00876532
290,1673.08,948.51,-0.0313306,-2.05521,-0.042909,0.00847906
291,1672.94,948.209,-0.00606896,-2.04192,-0.0448657,0.00822755
292,1672.84,948.055,-0.0196972,-2.03425,-0.0456467,0.00778713
293,1672.72,947.749,-0.0463106,-2.01985,-0.0528845,0.00723623
294,1672.59,947.486,-0.111327,-2.01068,-0.0510434,0.00639539
295,1672.5,947.281,-0.457209,-1.99599,-0.0358642,-0.00589909
296,1672.38,947.093,-0.476615,-1.98617,-0.0336745,-0.00585942
297,1672.26,946.823,-0.463144,-1.97274,-0.0348317,-0.00461173
298,1672.16,946.56,-0.411252,-1.95787,-0.0353999,-0.00131165
299,1672.05,946.251,-0.137969,-1.93953,-0.0326651,0.00540616
300,1671.97,946.071,-0.0927047,-1.93145,-0.0306768,0.00489154
301,1671.85,945.775,-0.0766768,-1.91405,-0.0291119,0.00305584
302,1671.75,945.544,-0.0670652,-1.90368,-0.0311385,0.00341397
303,1671.64,945.191,-0.0886584,-1.88478,-0.0351509,0.00492242
304,1671.57,944.991,-0.102728,-1.87346,-0.036134,0.00529465
305,1671.47,944.655,-0.099505,-1.85291,-0.037935,0.0058303
306,1671.39,944.471,-0.105207,-1.84053,-0.0381025,0.00564124
307,1671.32,944.129,-0.122011,-1.81883,-0.0376742,0.00539226
308,1671.26,943.922,-0.142995,-1.80812,-0.0381766,0.0065065
309,1671.18,943.599,-0.0631944,-1.78814,-0.0395304,0.00900883
310,1671.13,943.453,-0.0521808,-1.77573,-0.0347344,0.00579378
311,1671.07,943.082,-0.119035,-1.75306,-0.0398217,0.006426
312,1670.99,942.834,-0.112262,-1.74208,-0.0396697,0.00722159
313,1670.93,942.488,-0.0920985,-1.71958,-0.0413719,0.00740658
314,1670.88,942.228,-0.100748,-1.70825,-0.0423832,0.00829235
315,1670.87,941.983,-0.0740322,-1.68665,-0.0382127,0.0067596
316,1670.79,941.676,-0.0992518,-1.67266,-0.0449482,0.00870526
317,1670.8,941.359,-0.0934547,-1.64928,-0.0457494,0.00836997
318,1670.77,941.132,-0.145722,-1.63708,-0.0451731,0.00784324
319,1670.75,940.804,-0.13831,-1.61426,-0.044462,0.00962714
320,1670.7,940.538,-0.10174,-1.60186,-0.0454897,0.0105357
321,1670.72,940.232,-0.0774837,-1.57883,-0.0435675,0.00895037
322,1670.68,939.91,-0.0227934,-1.5658,-0.0473199,0.00939992
323,1670.72,939.625,-0.0378495,-1.54284,-0.0483131,0.00945947
324,1670.7,939.366,-0.0533097,-1.53058,-0.0504336,0.00927524
325,1670.78,939.05,-0.0636773,-1.50753,-0.049855,0.00716871
326,1670.77,938.826,-0.0710174,-1.49547,-0.0508657,0.007684
327,1670.83,938.527,-0.0767774,-1.47221,-0.0517263,0.00862656
328,1670.82,938.301,-0.0849856,-1.45933,-0.0521876,0.00998467
329,1670.86,937.966,-0.0928218,-1.43563,-0.052163,0.0100549
330,1670.86,937.706,-0.202548,-1.42239,-0.0488685,0.00807497
331,1670.88,937.409,-0.170368,-1.40014,-0.050002,0.00792276
332,1670.94,937.165,-0.14926,-1.38935,-0.0510798,0.00736384
333,1670.92,936.901,0.0536466,-1.36568,-0.0351302,-0.00297888
