id,x,y,z,yaw,pitch,roll
1,1717.11,1014.56,0,-2.18724,-0.021514,0.00148135
2,1716.91,1014.21,0,-2.19159,-0.037164,0.0120654
3,1716.58,1014.05,0,-2.19715,-0.0467721,-0.00426805
4,1716.33,1013.78,0,-2.25536,-0.0425393,-0.0106546
5,1716.16,1013.48,0,-2.19655,-0.0275236,-0.0166965
6,1715.98,1013.19,0,-2.1981,-0.0325463,-0.0154428
7,1715.79,1012.86,0,-2.19968,-0.0360305,-0.0100498
8,1715.67,1012.51,0,-2.19831,-0.0324709,-0.000317791
9,1715.48,1012.21,0,-2.19881,-0.0325795,0.00119126
10,1715.32,1011.77,0,-2.20134,-0.0501447,0.0285075
11,1715.1,1011.49,0,-2.20251,-0.0530982,0.0293895
12,1714.93,1011.27,0,-2.20406,-0.0514704,0.0271839
13,1714.69,1010.95,0,-2.20393,-0.0504368,0.027077
14,1714.45,1010.64,0,-2.20395,-0.0495231,0.0245823
15,1714.24,1010.39,0,-2.20505,-0.0474486,0.0214845
16,1714.04,1010.1,0,-2.20511,-0.0466624,0.019509
17,1713.84,1009.82,0,-2.2059,-0.0460068,0.0219547
18,1713.58,1009.52,0,-2.20565,-0.0513272,0.0157627
19,1713.37,1009.24,0,-2.20693,-0.051792,0.0143743
20,1713.16,1008.99,0,-2.20717,-0.0510748,0.0116581
21,1712.92,1008.7,0,-2.20733,-0.0516411,0.00988522
22,1712.74,1008.43,0,-2.20789,-0.0518587,0.0103041
23,1712.53,1008.15,0,-2.20856,-0.052185,0.00988339
24,1712.32,1007.87,0,-2.20845,-0.0531233,0.00950206
25,1712.12,1007.62,0,-2.20821,-0.0503916,0.00703214
26,1711.91,1007.37,0,-2.20858,-0.0473124,0.00256988
27,1711.68,1007.11,0,-2.20853,-0.0481966,-0.00163135
28,1711.49,1006.86,0,-2.20897,-0.045829,-0.00728218
29,1711.29,1006.61,0,-2.20907,-0.0453917,-0.00967215
30,1711.08,1006.36,0,-2.209,-0.0462376,-0.0105826
31,1710.96,1006.11,0,-2.21172,-0.0468168,-0.0123072
32,1710.74,1005.82,0,-2.21007,-0.0475461,-0.0117836
33,1710.52,1005.58,0,-2.20888,-0.0481723,-0.0119931
34,1710.27,1005.28,0,-2.20605,-0.0482706,-0.0115909
35,1710.11,1005.02,0,-2.20403,-0.0424427,-0.0141278
36,1709.93,1004.78,0,-2.20428,-0.0432083,-0.01338
37,1709.72,1004.54,0,-2.2022,-0.0439761,-0.014546
38,1709.54,1004.27,0,-2.20157,-0.0443918,-0.0166708
39,1709.33,1004.02,0,-2.19974,-0.0446532,-0.0181961
40,1709.15,1003.78,0,-2.19874,-0.0457363,-0.0166807
41,1708.95,1003.51,0,-2.19691,-0.046116,-0.016808
42,1708.58,1003,0,-2.19441,-0.0490291,-0.0165958
43,1708.41,1002.77,0,-2.19351,-0.0492396,-0.0155887
44,1708.26,1002.5,0,-2.1911,-0.0460459,-0.00850277
45,1708.06,1002.25,0,-2.19003,-0.0448015,-0.0108394
46,1707.88,1002.03,0,-2.18762,-0.0443988,-0.0141523
47,1707.68,1001.8,0,-2.18652,-0.0436783,-0.0207129
48,1707.5,1001.55,0,-2.18377,-0.0434377,-0.022759
49,1707.32,1001.33,0,-2.18242,-0.0437154,-0.0256285
50,1707.15,1001.11,0,-2.1803,-0.0446943,-0.0274063
51,1706.96,1000.87,0,-2.17936,-0.0457105,-0.0265558
52,1706.79,1000.61,0,-2.17644,-0.046942,-0.026396
53,1706.65,1000.41,0,-2.17562,-0.0482514,-0.0249473
54,1706.49,1000.18,0,-2.17371,-0.0495501,-0.0258517
55,1706.34,999.966,0,-2.17177,-0.0499593,-0.0269385
56,1706.16,999.7,0,-2.16907,-0.0510029,-0.0233088
57,1706,999.49,0,-2.16774,-0.0511048,-0.0251972
58,1705.84,999.258,0,-2.16595,-0.0517349,-0.0265869
59,1705.69,999.042,0,-2.16493,-0.0529512,-0.0260566
60,1705.55,998.815,0,-2.1629,-0.053679,-0.0251967
61,1705.4,998.595,0,-2.16136,-0.0545752,-0.0237726
62,1705.23,998.347,0,-2.15837,-0.0555772,-0.0237682
63,1705.11,998.117,0,-2.15742,-0.056123,-0.0162927
64,1704.94,997.851,0,-2.15422,-0.0560454,-0.0169537
65,1704.79,997.626,0,-2.15307,-0.0572074,-0.016971
66,1704.6,997.384,0,-2.15057,-0.0580551,-0.0187949
67,1704.46,997.163,0,-2.14953,-0.059063,-0.018433
68,1704.33,996.939,0,-2.14744,-0.0595514,-0.0135449
69,1704.19,996.688,0,-2.14631,-0.0602273,-0.0119467
70,1704.08,996.451,0,-2.14169,-0.0468605,-0.00762865
71,1703.96,996.257,0,-2.14105,-0.0442863,-0.00828446
72,1703.79,996.01,0,-2.13926,-0.0452521,-0.0116554
73,1703.64,995.771,0,-2.138,-0.0460848,-0.0115744
74,1703.52,995.551,0,-2.13685,-0.0459379,-0.00613528
75,1703.36,995.332,0,-2.1359,-0.0465178,-0.0088337
76,1703.18,995.063,0,-2.1339,-0.0463083,-0.00940826
77,1702.9,994.602,0,-2.13131,-0.0425533,-0.00859069
78,1702.74,994.358,0,-2.13006,-0.043598,-0.00871136
79,1702.57,994.069,0,-2.12793,-0.0416674,-0.0111612
80,1702.46,993.733,0,-2.12254,-0.0453155,-0.00808442
81,1702.34,993.535,0,-2.12359,-0.0445374,-0.00974034
82,1702.17,993.328,0,-2.12506,-0.044215,-0.0121091
83,1701.96,992.917,0,-2.1226,-0.0451482,-0.00699338
84,1701.84,992.746,0,-2.12373,-0.0447253,-0.007145
85,1701.69,992.498,0,-2.12371,-0.0437144,-0.0110473
86,1701.47,992.145,0,-2.12252,-0.0453116,-0.00960834
87,1701.32,991.908,0,-2.12354,-0.0450302,-0.0075473
88,1701.18,991.674,0,-2.12379,-0.0342659,-0.00915244
89,1701.05,991.507,0,-2.12579,-0.0344677,-0.00858677
90,1700.85,991.179,0,-2.12616,-0.0365948,-0.00765052
91,1700.69,990.946,0,-2.12906,-0.0377799,-0.00859539
92,1700.5,990.669,0,-2.12968,-0.0385413,-0.0110262
93,1700.34,990.409,0,-2.1329,-0.0404523,-0.0104962
94,1700.19,990.165,0,-2.1339,-0.0399062,-0.00816139
95,1700.06,989.977,0,-2.13653,-0.0355577,-0.0130784
96,1699.89,989.678,0,-2.13755,-0.0316288,-0.00735331
97,1699.73,989.43,0,-2.14102,-0.0327842,-0.00531333
98,1699.58,989.236,0,-2.14086,-0.0359486,-0.00974272
99,1699.41,989.003,0,-2.14409,-0.0373016,-0.0115353
100,1699.15,988.625,0,-2.14519,-0.0391582,-0.0112602
101,1699.06,988.511,0,-2.14849,-0.0391949,-0.0110155
102,1698.85,988.201,0,-2.14931,-0.0408541,-0.011373
103,1698.71,988.004,0,-2.15317,-0.0417687,-0.0122271
104,1698.55,987.752,0,-2.15415,-0.0423682,-0.0124136
105,1698.35,987.509,0,-2.15693,-0.040885,-0.0190047
106,1698.15,987.2,0,-2.15863,-0.0386101,-0.016996
107,1697.9,986.844,0,-2.16093,-0.039818,-0.0152462
108,1697.9,986.813,0,-2.16187,-0.0415658,-0.0139627
109,1697.69,986.458,0,-2.16507,-0.0422899,-0.00832002
110,1697.54,986.248,0,-2.1669,-0.0432211,-0.0081327
111,1697.44,985.977,0,-2.16557,-0.0359044,-0.00841955
112,1697.3,985.793,0,-2.16682,-0.0374928,-0.0102789
113,1697.11,985.532,0,-2.16912,-0.0390661,-0.0107756
114,1696.99,985.355,0,-2.17097,-0.0401481,-0.00972045
115,1696.8,985.111,0,-2.17309,-0.0417653,-0.00896886
116,1696.65,984.873,0,-2.1747,-0.0423546,-0.00876922
117,1696.52,984.693,0,-2.17737,-0.0433635,-0.00809013
118,1696.36,984.478,0,-2.17953,-0.0438656,-0.00736041
119,1696.2,984.269,0,-2.18278,-0.0448215,-0.00718202
120,1696.06,984.032,0,-2.18347,-0.0458308,-0.0079111
121,1695.94,983.924,0,-2.18671,-0.0463407,-0.00909751
122,1695.76,983.657,0,-2.18743,-0.0481277,-0.0092655
123,1695.63,983.457,0,-2.18917,-0.0486639,-0.00954475
124,1695.49,983.232,0,-2.18919,-0.0495419,-0.00880926
125,1695.36,983.12,0,-2.19252,-0.0496739,-0.00895276
126,1695.21,982.9,0,-2.19338,-0.0511888,-0.00902917
127,1695.05,982.637,0,-2.19421,-0.0524502,-0.0072371
128,1694.88,982.422,0,-2.19468,-0.0531857,-0.0059611
129,1694.85,982.325,0,-2.19491,-0.0418258,-0.00354569
130,1694.66,982.038,0,-2.19592,-0.036326,6.42E-05
131,1694.68,982.034,0,-2.1966,-0.037175,0.00240226
132,1694.35,981.625,0,-2.19852,-0.0329137,0.00227036
133,1694.19,981.477,0,-2.20235,-0.0303723,0.00507937
134,1694.02,981.186,0,-2.20075,-0.0286117,-0.00224952
135,1693.9,981.052,0,-2.20289,-0.029301,-0.00121957
136,1693.75,980.883,0,-2.2038,-0.0299997,-0.000477542
137,1693.59,980.766,0,-2.20793,-0.0257247,0.00340895
138,1693.47,980.604,0,-2.20878,-0.0259102,0.00296
139,1693.32,980.394,0,-2.20963,-0.0270858,0.00422394
140,1693.18,980.216,0,-2.21036,-0.0274799,0.00431116
141,1693,980.001,0,-2.21002,-0.0291054,0.00395162
142,1692.96,979.952,0,-2.2091,-0.0292623,0.00341412
143,1692.72,979.649,0,-2.20907,-0.0306796,0.00384729
144,1692.55,979.411,0,-2.20878,-0.0309653,0.002774
145,1692.39,979.192,0,-2.20754,-0.0307696,0.00196036
146,1692.25,979.024,0,-2.2081,-0.0319306,0.00153588
147,1692.08,978.76,0,-2.20764,-0.033055,0.0043594
148,1691.95,978.559,0,-2.20661,-0.0337885,0.00418258
149,1691.88,978.468,0,-2.20611,-0.0339406,0.00540158
150,1691.78,978.312,0,-2.20512,-0.0337338,0.00726398
151,1691.7,978.2,0,-2.20283,-0.0326628,0.00729767
152,1691.66,978.138,0,-2.20165,-0.0341571,0.0103567
153,1691.34,977.623,0,-2.20072,-0.0274207,0.0216744
154,1691.16,977.376,0,-2.20015,-0.0282062,0.0239553
155,1691.14,977.337,0,-2.19791,-0.028267,0.0240164
156,1690.87,976.985,0,-2.19706,-0.029331,0.0219642
157,1690.76,976.801,0,-2.195,-0.0299814,0.0213963
158,1690.63,976.624,0,-2.19365,-0.0304108,0.0217452
159,1690.47,976.412,0,-2.19124,-0.030852,0.0202494
160,1690.32,976.217,0,-2.18939,-0.0345061,0.0161687
161,1690.32,976.206,0,-2.18689,-0.0336116,0.0141217
162,1690.08,975.885,0,-2.18598,-0.0351513,0.0145142
163,1689.91,975.604,0,-2.18353,-0.0357671,0.0143523
164,1689.81,975.465,0,-2.182,-0.0383577,0.0170551
165,1689.68,975.262,0,-2.17964,-0.0380417,0.0190931
166,1689.53,975.046,0,-2.17805,-0.0392871,0.0209793
167,1689.38,974.773,0,-2.17553,-0.0398792,0.0227142
168,1689.26,974.57,0,-2.17389,-0.0402677,0.0233772
169,1689.1,974.32,0,-2.17122,-0.0417176,0.0237213
170,1688.96,974.158,0,-2.16944,-0.0415311,0.019797
171,1688.83,973.954,0,-2.167,-0.0414134,0.0192543
172,1688.65,973.673,0,-2.1657,-0.0415832,0.0192239
173,1688.49,973.428,0,-2.16287,-0.0412746,0.020592
174,1688.39,973.323,0,-2.16231,-0.0353773,0.0200373
175,1688.34,973.258,0,-2.15983,-0.0255051,0.0152297
176,1688.15,973.027,0,-2.15949,-0.0257558,0.0134451
177,1687.99,972.782,0,-2.15703,-0.0287002,0.0146057
178,1687.94,972.72,0,-2.15622,-0.0293193,0.0154972
179,1687.7,972.373,0,-2.15482,-0.0297412,0.0140882
180,1687.56,972.165,0,-2.15389,-0.0306524,0.012582
181,1687.41,971.964,0,-2.15241,-0.0287374,0.00839634
182,1687.27,971.756,0,-2.15101,-0.0291855,0.00784636
183,1687.14,971.556,0,-2.14916,-0.0288628,0.00601732
184,1687,971.368,0,-2.1484,-0.0296169,0.00747157
185,1686.89,971.163,0,-2.14676,-0.0312089,0.00707095
186,1686.78,971.003,0,-2.14581,-0.0298199,0.00617303
187,1686.68,970.856,0,-2.14407,-0.0298191,0.0070566
188,1686.61,970.748,0,-2.14183,-0.0297241,0.0082609
189,1686.41,970.459,0,-2.14144,-0.0307038,0.0103272
190,1686.31,970.349,0,-2.13958,-0.0287118,0.00748665
191,1686.25,970.229,0,-2.13734,-0.0286974,0.00732045
192,1686.01,969.865,0,-2.1394,-0.0349703,0.0118606
193,1685.95,969.717,0,-2.13717,-0.0351549,0.0114275
194,1685.9,969.112,0,-2.14978,-0.0401527,0.00885803
195,1685.8,968.972,0,-2.1476,-0.0454793,0.00660465
196,1685.66,968.767,0,-2.14699,-0.0480191,0.00747387
197,1685.55,968.626,0,-2.1448,-0.0480546,0.00706476
198,1685.43,968.442,0,-2.1449,-0.0494928,0.00756139
199,1685.32,968.241,0,-2.14319,-0.0516297,0.00900874
200,1685.23,968.118,0,-2.14181,-0.0508797,0.00831098
201,1685.11,967.92,0,-2.14061,-0.0510428,0.00827726
202,1684.99,967.746,0,-2.13988,-0.0520177,0.0081045
203,1684.84,967.541,0,-2.13901,-0.0504629,0.00593561
204,1684.76,967.401,0,-2.1376,-0.0526762,0.0071936
205,1684.65,967.228,0,-2.13641,-0.0531324,0.00706458
206,1684.56,967.088,0,-2.13515,-0.0505072,0.00640261
207,1684.46,966.907,0,-2.13308,-0.0503815,0.00618272
208,1684.32,966.72,0,-2.13316,-0.048485,0.00454451
209,1684.19,966.655,0,-2.13071,-0.0300822,-0.00998178
210,1684.08,966.512,0,-2.12953,-0.0331821,-0.0102024
211,1683.96,966.294,0,-2.12844,-0.0347894,-0.0063716
212,1683.87,966.119,0,-2.12695,-0.0351971,-0.00473305
213,1683.76,965.945,0,-2.12609,-0.0343479,-0.00781124
214,1683.7,965.831,0,-2.12327,-0.0350397,-0.00780252
215,1683.52,965.573,0,-2.123,-0.0359739,-0.00697571
216,1683.35,965.331,0,-2.12447,-0.0389902,-0.00867061
217,1683.22,965.192,0,-2.12181,-0.0402193,-0.0174744
218,1683.12,965.038,0,-2.12052,-0.0404871,-0.0185475
219,1683.02,964.851,0,-2.119,-0.0414756,-0.018295
220,1682.88,964.65,0,-2.11819,-0.0424758,-0.0185656
221,1682.86,964.538,0,-2.11459,-0.0394846,-0.0187237
222,1682.67,964.221,0,-2.11554,-0.0379953,-0.0118907
223,1682.58,964.036,0,-2.11391,-0.0381047,-0.0119163
224,1682.48,963.875,0,-2.11262,-0.0383664,-0.0109952
225,1682.32,963.596,0,-2.11242,-0.039939,-0.012827
226,1682.19,963.396,0,-2.11208,-0.0397672,-0.0120936
227,1682.06,963.191,0,-2.11116,-0.0397611,-0.0119969
228,1681.94,962.979,0,-2.1103,-0.0394845,-0.0119262
229,1681.87,962.792,0,-2.10831,-0.0382647,-0.0118336
230,1681.66,962.497,0,-2.10908,-0.0387335,-0.0123462
231,1681.51,962.265,0,-2.10922,-0.0388134,-0.0131312
232,1681.37,962.067,0,-2.10918,-0.0383333,-0.0148622
233,1681.26,961.841,0,-2.10791,-0.0369766,-0.0142018
234,1681.08,961.576,0,-2.10866,-0.0376642,-0.0135498
235,1680.99,961.373,0,-2.1073,-0.0378164,-0.0132793
236,1680.85,961.121,0,-2.10693,-0.038452,-0.011712
237,1680.69,960.884,0,-2.10728,-0.0375304,-0.01061
238,1680.52,960.622,0,-2.10792,-0.0397049,-0.00895123
239,1680.4,960.409,0,-2.10791,-0.0372252,-0.00842025
240,1680.25,960.163,0,-2.10807,-0.0379615,-0.0101189
241,1680.1,959.91,0,-2.10876,-0.0359554,-0.0110656
242,1679.95,959.659,0,-2.10914,-0.0375239,-0.0112624
243,1679.78,959.435,0,-2.10969,-0.0353035,-0.022619
244,1679.65,959.166,0,-2.10987,-0.0338805,-0.0181519
245,1679.52,958.935,0,-2.11112,-0.0322363,-0.0146332
246,1679.36,958.699,0,-2.11144,-0.0327768,-0.0140812
247,1679.23,958.505,0,-2.11151,-0.0329212,-0.0141035
248,1679.08,958.256,0,-2.1127,-0.022616,-0.023206
249,1678.96,958.035,0,-2.11239,-0.0217731,-0.022353
250,1678.78,957.798,0,-2.11363,-0.025344,-0.0276014
251,1678.62,957.611,0,-2.11489,-0.0284424,-0.0306704
252,1678.5,957.4,0,-2.11622,-0.034004,-0.0307168
253,1678.36,957.217,0,-2.11699,-0.0350447,-0.032605
254,1678.21,957.009,0,-2.1171,-0.0343864,-0.0348411
255,1678.06,956.796,0,-2.11842,-0.0333575,-0.0323515
256,1677.9,956.457,0,-2.11926,-0.0426663,-0.0242371
257,1677.78,956.197,0,-2.12067,-0.044127,-0.0190944
258,1677.65,955.969,0,-2.12252,-0.0445472,-0.0204266
259,1677.54,955.721,0,-2.12512,-0.0394793,-0.0182847
260,1677.41,955.442,0,-2.12521,-0.0381046,-0.0158201
261,1677.24,955.199,0,-2.12543,-0.0387635,-0.014467
262,1677.08,954.937,0,-2.12542,-0.0404265,-0.0117588
263,1676.92,954.706,0,-2.12524,-0.041371,-0.0102907
264,1676.79,954.492,0,-2.12638,-0.0407127,-0.0104822
265,1676.61,954.273,0,-2.12736,-0.040076,-0.0109402
266,1676.47,954.042,0,-2.12777,-0.041467,-0.00937895
267,1676.34,953.813,0,-2.12733,-0.0425948,-0.00988102
268,1676.18,953.554,0,-2.12809,-0.0451429,-0.0103718
269,1676.08,953.365,0,-2.12821,-0.04204,-0.0124886
270,1675.94,953.156,0,-2.12904,-0.0406899,-0.0130651
271,1675.81,952.951,0,-2.12943,-0.0419572,-0.0118827
272,1675.65,952.709,0,-2.12894,-0.0409367,-0.0107572
273,1675.52,952.521,0,-2.12811,-0.0404435,-0.0107438
274,1675.35,952.271,0,-2.12842,-0.0404289,-0.0100177
275,1675.19,952.052,0,-2.12802,-0.0415012,-0.00924059
276,1675.01,951.81,0,-2.12814,-0.0433548,-0.00770082
277,1674.88,951.58,0,-2.12696,-0.043327,-0.00778025
278,1674.74,951.379,0,-2.12565,-0.0448239,-0.00806858
279,1674.58,951.12,0,-2.12356,-0.0456153,-0.00691806
280,1674.41,950.878,0,-2.12094,-0.0456754,-0.0082519
281,1674.29,950.662,0,-2.11693,-0.0463671,-0.00811405
282,1674.12,950.397,0,-2.1138,-0.0477163,-0.00829984
283,1673.99,950.188,0,-2.10679,-0.041307,-0.00901763
284,1673.84,949.954,0,-2.1021,-0.040505,-0.00760788
285,1673.78,949.714,0,-2.09439,-0.0309152,-0.00316441
286,1673.63,949.494,0,-2.08759,-0.0289236,-0.00466532
287,1673.52,949.205,0,-2.07828,-0.030708,0.000513079
288,1673.4,949.001,0,-2.07208,-0.0365637,0.00812466
289,1673.25,948.686,0,-2.06226,-0.0403283,0.00960509
290,1673.09,948.489,0,-2.05505,-0.0422284,0.00874938
291,1672.97,948.221,0,-2.04289,-0.0420846,0.00674357
292,1672.87,948.036,0,-2.03474,-0.0401548,0.00555703
293,1672.77,947.765,0,-2.0209,-0.0426833,0.00472405
294,1672.66,947.553,0,-2.01108,-0.0403906,0.00576377
295,1672.56,947.255,0,-1.996,-0.0440036,0.00514279
296,1672.42,947.012,0,-1.98533,-0.0456077,0.00636992
297,1672.27,946.721,0,-1.97308,-0.0503224,0.00721356
298,1672.14,946.459,0,-1.95873,-0.0506325,0.00824699
299,1672.03,946.159,0,-1.94147,-0.0513349,0.00824579
300,1671.91,945.929,0,-1.93271,-0.0525303,0.00870398
301,1671.78,945.584,0,-1.91469,-0.0537954,0.00789253
302,1671.72,945.409,0,-1.90527,-0.054608,0.0072204
303,1671.64,945.088,0,-1.88635,-0.0543901,0.00708269
304,1671.57,944.856,0,-1.87288,-0.0536773,0.00854577
305,1671.46,944.584,0,-1.85445,-0.0563738,0.00644678
306,1671.37,944.355,0,-1.83987,-0.0512116,0.00786537
307,1671.26,943.971,0,-1.82075,-0.0512533,0.00624195
308,1671.21,943.831,0,-1.80732,-0.0520409,0.00876085
309,1671.18,943.52,0,-1.78896,-0.0528126,0.00827423
310,1671.07,943.27,0,-1.7743,-0.0532545,0.00825148
311,1671.04,942.956,0,-1.75251,-0.0523087,0.00771473
312,1671.02,942.82,0,-1.74114,-0.0397714,0.00964532
313,1670.66,942.857,0,-1.72736,-0.0318958,0.0112175
314,1670.65,942.717,0,-1.7171,-0.0292176,0.0115696
315,1670.7,942.568,0,-1.6999,-0.0305908,0.0118815
316,1670.85,942.652,0,-1.68876,-0.0277423,0.0140701
317,1670.9,942.422,0,-1.6647,-0.0224478,0.0152407
318,1670.97,942.316,0,-1.65345,-0.0210948,0.0175184
319,1670.89,941.91,0,-1.6287,-0.0209946,0.0224119
320,1670.92,941.764,0,-1.61534,-0.0157644,0.022112
321,1670.93,941.477,0,-1.59426,-0.00824181,0.024034
322,1670.9,941.187,0,-1.58116,-0.00843604,0.020895
323,1670.77,940.762,0,-1.55848,-0.0109215,0.0155129
324,1670.89,940.628,0,-1.54516,-0.00979634,0.0161999
325,1670.91,940.327,0,-1.52426,-0.0114546,0.0137068
326,1670.95,940.131,0,-1.51197,-0.0135361,0.0097835
327,1670.93,939.788,0,-1.48601,-0.0157182,0.00198316
328,1670.95,939.542,0,-1.47209,-0.0180317,0.00330599
329,1670.98,939.23,0,-1.44995,-0.0166557,0.00463258
330,1670.98,938.967,0,-1.43533,-0.0166717,0.00780022
331,1670.95,938.615,0,-1.41868,-0.016549,0.00835546
332,1670.96,938.345,0,-1.40395,-0.0172018,0.00675799
333,1671.01,937.983,0,-1.37832,-0.01759,0.00648539
334,1671.12,937.837,0,-1.36773,-0.0168605,0.00642616
335,1671.21,937.589,0,-1.34767,-0.0044547,0.0131021
336,1671.28,937.371,0,-1.33363,-0.00272695,0.0181215
337,1671.32,937.058,0,-1.31196,-0.00394657,0.0177604
338,1671.39,936.814,0,-1.2992,-0.00602528,0.0154821
339,1671.45,936.499,0,-1.27724,-0.0116997,0.0150954
340,1671.55,936.261,0,-1.264,-0.013964,0.0164859
341,1671.63,935.966,0,-1.24349,-0.0151347,0.0182616
342,1671.71,935.73,0,-1.23191,-0.0148261,0.0197652
343,1671.81,935.443,0,-1.21258,-0.0166007,0.0207558
344,1671.85,935.172,0,-1.20088,-0.019597,0.0233395
345,1672.07,935.198,0,-1.19314,-0.0193631,0.0233307
346,1672.04,934.711,0,-1.17066,-0.0221653,0.022779
347,1672.11,934.368,0,-1.15198,-0.0239282,0.0212004
348,1672.25,934.153,0,-1.13791,-0.0245672,0.0206754
349,1672.4,933.908,0,-1.11917,-0.0242158,0.0221944
350,1672.52,933.656,0,-1.10465,-0.0247794,0.0202895
351,1672.6,933.387,0,-1.09061,-0.0241633,0.0118986
352,1672.68,933.092,0,-1.07229,-0.0238343,0.0118368
353,1672.85,932.863,0,-1.05317,-0.0248408,0.0114818
354,1672.98,932.655,0,-1.04169,-0.0239968,0.0121834
355,1673.15,932.403,0,-1.02159,-0.0232334,0.0121608
356,1673.31,932.177,0,-1.01078,-0.0204596,0.0158462
357,1673.46,931.974,0,-0.994784,-0.0204694,0.0183428
358,1673.65,931.738,0,-0.980251,-0.0204464,0.0196095
359,1673.78,931.512,0,-0.961074,-0.0163502,0.0127097
360,1673.92,931.303,0,-0.949579,-0.0123796,0.00801489
361,1674.07,931.086,0,-0.935292,-0.0114897,0.00735394
362,1674.2,930.868,0,-0.923827,-0.0111475,0.00233961
363,1674.41,930.637,0,-0.907681,-0.0125249,0.00128297
364,1674.57,930.427,0,-0.896824,-0.0127783,0.00168858
365,1674.72,930.232,0,-0.8798,-0.0126062,-0.000517305
366,1674.93,930.022,0,-0.869875,-0.0131523,-0.000518324
367,1675.11,929.828,0,-0.856541,-0.0144941,-0.00137364
368,1675.27,929.594,0,-0.847641,-0.013938,-0.00126804
369,1675.36,929.339,0,-0.838587,-0.016805,-0.00551793
370,1675.58,929.147,0,-0.830619,-0.0171739,-0.00573042
371,1675.76,928.969,0,-0.819877,-0.0174572,-0.00441485
372,1675.94,928.727,0,-0.810182,-0.0181466,-0.00554355
373,1676.12,928.546,0,-0.798883,-0.0192381,-0.00557833
374,1676.34,928.326,0,-0.792019,-0.0231461,-0.0068913
375,1676.53,928.109,0,-0.781573,-0.0242209,-0.0108839
