id,x,y,z,yaw,pitch,roll
1,-285.114,226.342,-12.5715,2.44847,0.0135456,0.0396521
2,-285.327,226.505,-12.5978,2.44795,0.013198,0.0398255
3,-285.546,226.711,-12.6079,2.44841,0.0127375,0.0364103
4,-285.772,226.911,-12.616,2.44915,0.0116016,0.0338319
5,-285.978,227.102,-12.614,2.45005,0.0115951,0.0330874
6,-286.201,227.303,-12.6097,2.44956,0.0108945,0.0333663
7,-286.398,227.479,-12.6066,2.45011,0.0101718,0.0343334
8,-286.614,227.663,-12.6071,2.45077,0.0086819,0.0352745
9,-286.815,227.84,-12.6076,2.45106,0.00749485,0.0343169
10,-287.018,228.016,-12.5851,2.45118,0.00361155,0.0341912
11,-287.215,228.179,-12.5828,2.45108,-0.000730987,0.0357479
12,-287.412,228.338,-12.5996,2.45087,-0.00299795,0.0378905
13,-287.608,228.499,-12.6165,2.45032,-0.00273035,0.0393573
14,-287.794,228.661,-12.631,2.45069,-0.00120053,0.0402719
15,-287.981,228.82,-12.6304,2.45088,-0.000174917,0.0409101
16,-288.146,228.96,-12.639,2.45135,0.00010694,0.0408836
17,-288.336,229.124,-12.6597,2.45185,0.00228397,0.0411279
18,-288.489,229.26,-12.6686,2.45255,0.00499352,0.0411715
19,-288.655,229.41,-12.6641,2.45303,0.00674528,0.0385331
20,-288.809,229.541,-12.6544,2.45349,0.00679035,0.0363294
21,-288.965,229.669,-12.6598,2.45435,0.00637725,0.035739
22,-289.123,229.803,-12.6757,2.45418,0.00689016,0.0378346
23,-289.295,229.943,-12.6956,2.45404,0.00994679,0.0394673
24,-289.446,230.067,-12.7004,2.45461,0.0122779,0.0416127
25,-289.602,230.197,-12.6993,2.45589,0.0140988,0.0439386
26,-289.742,230.321,-12.6911,2.45648,0.0148685,0.0450456
27,-289.9,230.442,-12.6859,2.45607,0.0142167,0.0458312
28,-290.053,230.567,-12.6833,2.45713,0.0121856,0.0458596
29,-290.189,230.672,-12.6904,2.45882,0.0100408,0.0459283
30,-290.341,230.779,-12.6912,2.45968,0.00857679,0.0452486
31,-290.493,230.886,-12.6799,2.46072,0.00584686,0.043426
32,-290.621,231.013,-12.6817,2.45981,0.0020071,0.0435862
33,-290.741,231.128,-12.6662,2.45891,-0.000288623,0.0427522
34,-290.845,231.256,-12.6083,2.45823,-0.00535902,0.039389
35,-290.964,231.376,-12.5841,2.45699,-0.0124134,0.0381826
36,-291.102,231.498,-12.6181,2.45718,-0.0143272,0.0380793
37,-291.22,231.605,-12.6759,2.45718,-0.0100399,0.038653
38,-291.368,231.696,-12.735,2.45829,-0.00113096,0.0406133
39,-291.452,231.778,-12.7258,2.45865,0.0030725,0.0418326
40,-291.561,231.875,-12.7027,2.45855,0.00267492,0.0432043
41,-291.719,232.011,-12.7103,2.45798,-0.00031562,0.0469747
42,-291.847,232.1,-12.7232,2.45741,-0.000644078,0.0516271
43,-291.974,232.195,-12.7263,2.45696,0.00073946,0.0549543
44,-292.085,232.285,-12.7217,2.45721,0.00286021,0.0546134
45,-292.197,232.377,-12.7168,2.45812,0.00556412,0.0505631
46,-292.311,232.471,-12.7093,2.45931,0.00686563,0.0458321
47,-292.409,232.559,-12.706,2.45968,0.00587382,0.0448204
48,-292.539,232.667,-12.7173,2.45868,0.00439456,0.0464553
49,-292.641,232.747,-12.7267,2.45811,0.0046043,0.0474544
50,-292.768,232.857,-12.7266,2.45828,0.00580221,0.0490205
51,-292.878,232.947,-12.7212,2.45798,0.00591749,0.0494997
52,-293.007,233.065,-12.7278,2.45706,0.0066636,0.0484736
53,-293.113,233.155,-12.7381,2.45775,0.00896562,0.0473996
54,-293.256,233.278,-12.7203,2.45884,0.011003,0.0466515
55,-293.384,233.406,-12.683,2.45892,0.00880926,0.0443922
56,-293.539,233.542,-12.6746,2.45735,0.00131937,0.0417494
57,-293.666,233.636,-12.7129,2.45698,-0.00158839,0.041174
58,-293.784,233.735,-12.7344,2.45816,-0.00160609,0.0432249
59,-293.896,233.814,-12.7356,2.45889,-0.00222024,0.0461833
60,-294.047,233.946,-12.7239,2.45909,-0.00447612,0.0481373
61,-294.2,234.095,-12.7397,2.45827,-0.006356,0.0489315
62,-294.333,234.213,-12.7456,2.45761,-0.00613293,0.0497118
63,-294.454,234.337,-12.7428,2.45806,-0.00574381,0.0507206
64,-294.584,234.479,-12.7578,2.45719,-0.00554021,0.0512913
65,-294.706,234.59,-12.7548,2.45666,-0.00433169,0.0496008
66,-294.827,234.712,-12.7629,2.4571,-0.00423184,0.0479598
67,-294.956,234.833,-12.7693,2.4576,-0.00430312,0.0478499
68,-295.105,234.962,-12.7777,2.45693,-0.00426797,0.0479868
69,-295.233,235.077,-12.7823,2.45671,-0.00448196,0.0485537
70,-295.354,235.187,-12.782,2.45676,-0.00433828,0.0490775
71,-295.501,235.317,-12.7753,2.45622,-0.00502003,0.0490954
72,-295.629,235.424,-12.773,2.45541,-0.00538931,0.0491418
73,-295.766,235.54,-12.7701,2.4555,-0.00549925,0.048837
74,-295.905,235.653,-12.777,2.45636,-0.00550625,0.0494034
75,-296.037,235.755,-12.7817,2.45617,-0.00559808,0.0492619
76,-296.18,235.861,-12.7744,2.45593,-0.00501967,0.0480009
77,-296.327,235.975,-12.7649,2.45613,-0.00522011,0.0457222
78,-296.471,236.089,-12.7692,2.4574,-0.00556245,0.0446267
79,-296.607,236.211,-12.7774,2.4574,-0.00434567,0.0440847
80,-296.767,236.327,-12.7768,2.45741,-0.00228369,0.0440169
81,-296.901,236.418,-12.7641,2.45751,-0.00153617,0.045087
82,-297.019,236.487,-12.7587,2.45727,-0.00148247,0.0458197
83,-297.155,236.569,-12.7598,2.45683,-0.00154612,0.0464621
84,-297.327,236.682,-12.7663,2.45667,-0.0013497,0.0466687
85,-297.493,236.821,-12.7703,2.45626,-0.000447018,0.0465317
86,-297.606,236.923,-12.7675,2.45633,-0.000176474,0.0462507
87,-297.766,237.073,-12.7655,2.45678,-0.00102365,0.0461073
88,-297.909,237.201,-12.7703,2.45764,-0.00137523,0.0464671
89,-298.056,237.319,-12.7723,2.4578,-0.00146322,0.0469021
90,-298.202,237.448,-12.7754,2.45797,-0.00208944,0.0458736
91,-298.351,237.572,-12.7796,2.45856,-0.00260015,0.0451551
92,-298.492,237.705,-12.7874,2.45934,-0.00332567,0.0444772
93,-298.655,237.878,-12.7891,2.45949,-0.00343442,0.042973
94,-298.778,238.056,-12.7861,2.45904,-0.004299,0.0411261
95,-298.917,238.175,-12.7753,2.45938,-0.00547165,0.0396591
96,-299.07,238.306,-12.7706,2.46019,-0.00709292,0.0384397
97,-299.22,238.433,-12.7742,2.46076,-0.00871618,0.0377993
98,-299.363,238.552,-12.7824,2.46167,-0.00889367,0.0371215
99,-299.506,238.676,-12.7952,2.46186,-0.00782382,0.0358249
100,-299.655,238.786,-12.8042,2.46224,-0.00651828,0.035419
101,-299.809,238.914,-12.8055,2.46276,-0.0057535,0.0367904
102,-299.966,239.019,-12.8034,2.46258,-0.00519133,0.0390181
103,-300.124,239.116,-12.8013,2.46288,-0.00517621,0.0386976
104,-300.287,239.231,-12.8084,2.46349,-0.00556998,0.0376599
105,-300.434,239.393,-12.8151,2.46423,-0.00516236,0.0357337
106,-300.599,239.549,-12.824,2.46475,-0.00445364,0.0340646
107,-300.735,239.693,-12.8253,2.46586,-0.00385252,0.0326686
108,-300.884,239.834,-12.8203,2.46676,-0.00363183,0.0313101
109,-301.038,239.965,-12.8153,2.46708,-0.00367811,0.0305317
110,-301.184,240.095,-12.8109,2.467,-0.00386349,0.0297816
111,-301.345,240.218,-12.8182,2.46675,-0.00379897,0.0293904
112,-301.506,240.348,-12.8266,2.46713,-0.00300164,0.0276719
113,-301.679,240.487,-12.8273,2.46962,-0.00270575,0.0244188
114,-301.826,240.618,-12.8262,2.47174,-0.00415743,0.0229054
115,-301.99,240.746,-12.8282,2.47363,-0.00552251,0.0208461
116,-302.156,240.877,-12.8367,2.47599,-0.00607334,0.0191805
117,-302.319,241.007,-12.8366,2.478,-0.00604838,0.019625
118,-302.487,241.132,-12.8417,2.48046,-0.00547768,0.0188736
119,-302.652,241.264,-12.8478,2.48298,-0.00486451,0.0181608
120,-302.816,241.398,-12.8467,2.48464,-0.00458985,0.0183028
121,-302.989,241.561,-12.846,2.48683,-0.00481031,0.0179272
122,-303.149,241.697,-12.8453,2.48931,-0.00478899,0.0170958
123,-303.322,241.829,-12.843,2.49257,-0.00448801,0.0159407
124,-303.482,241.949,-12.8424,2.49569,-0.00451084,0.0146647
125,-303.651,242.065,-12.8395,2.49866,-0.00464077,0.0136909
126,-303.825,242.183,-12.842,2.50198,-0.00456306,0.0128352
127,-304.018,242.313,-12.8505,2.50628,-0.0038638,0.0120872
128,-304.18,242.429,-12.8497,2.51102,-0.00367115,0.0108767
129,-304.349,242.544,-12.8475,2.51567,-0.00376058,0.0105949
130,-304.52,242.658,-12.8519,2.52024,-0.00387671,0.0117232
131,-304.709,242.757,-12.8441,2.5259,-0.00562664,0.0141789
132,-304.921,242.875,-12.8418,2.53428,-0.00825991,0.0163448
133,-305.106,242.97,-12.8319,2.54326,-0.00990652,0.0151735
134,-305.303,243.089,-12.8329,2.55313,-0.0111079,0.0118782
135,-305.497,243.185,-12.8425,2.56429,-0.0114434,0.00862374
136,-305.698,243.271,-12.849,2.57555,-0.0108233,0.00760086
137,-305.897,243.35,-12.8537,2.58718,-0.0111768,0.00808834
138,-306.078,243.431,-12.8583,2.59831,-0.0112075,0.00839519
139,-306.286,243.511,-12.8552,2.61115,-0.0114291,0.00829984
140,-306.487,243.577,-12.8533,2.62357,-0.0120512,0.00840928
141,-306.687,243.634,-12.8431,2.63571,-0.0124266,0.00793871
142,-306.883,243.712,-12.845,2.64945,-0.0122422,0.00516413
143,-307.088,243.801,-12.8535,2.66559,-0.0133102,0.00321261
144,-307.298,243.854,-12.8553,2.68015,-0.013722,0.00484558
145,-307.509,243.905,-12.857,2.69468,-0.0134035,0.00617803
146,-307.716,243.958,-12.8594,2.71108,-0.0132333,0.00737524
147,-307.924,244.005,-12.8572,2.72772,-0.0133503,0.00848172
148,-308.147,244.048,-12.8487,2.74661,-0.0124847,0.00838759
149,-308.373,244.085,-12.8505,2.76586,-0.0117684,0.0069212
150,-308.602,244.114,-12.8594,2.78625,-0.0115469,0.00603754
151,-308.819,244.142,-12.8567,2.80649,-0.0111804,0.00403718
152,-309.042,244.158,-12.8594,2.82736,-0.0111062,0.00326783
153,-309.28,244.161,-12.867,2.84972,-0.0111716,0.0035726
154,-309.518,244.161,-12.8715,2.87375,-0.0104473,0.00428634
155,-309.74,244.149,-12.8696,2.89722,-0.00919814,0.0035134
156,-309.967,244.153,-12.8666,2.92117,-0.00766311,0.00140324
157,-310.193,244.134,-12.8615,2.94528,-0.00678321,-0.000218102
158,-310.43,244.101,-12.8648,2.96951,-0.00656054,-0.000588208
159,-310.66,244.062,-12.8664,2.99518,-0.00649912,-0.000303208
160,-310.89,244.021,-12.8719,3.02053,-0.00622558,0.000694434
161,-311.113,243.978,-12.87,3.04487,-0.00618342,0.00164829
162,-311.346,243.924,-12.8689,3.07023,-0.00575998,0.00272084
163,-311.578,243.861,-12.8701,3.0962,-0.00585963,0.00399267
164,-311.811,243.789,-12.8609,3.12235,-0.00615394,0.00456744
165,-312.047,243.706,-12.8649,-3.13441,-0.00569975,0.00483696
166,-312.287,243.639,-12.8664,-3.10715,-0.00464766,0.00529324
167,-312.51,243.549,-12.8731,-3.08058,-0.00393906,0.00515128
168,-312.751,243.451,-12.8687,-3.05252,-0.00447948,0.0056529
169,-312.989,243.337,-12.8748,-3.02541,-0.00467441,0.00617569
170,-313.233,243.217,-12.8804,-2.99724,-0.00486589,0.00727038
171,-313.475,243.104,-12.8912,-2.96911,-0.00418993,0.00836735
172,-313.705,242.974,-12.8964,-2.94006,-0.00144307,0.00984231
173,-313.924,242.853,-12.9042,-2.9115,0.000941569,0.010283
174,-314.164,242.703,-12.913,-2.88228,0.0011856,0.011152
175,-314.401,242.539,-12.9205,-2.85311,-0.00150109,0.0130359
176,-314.629,242.375,-12.9158,-2.82574,-0.00307411,0.0132245
177,-314.848,242.208,-12.918,-2.79689,-0.00441847,0.010602
178,-315.089,242.051,-12.9287,-2.76792,-0.00639373,0.0103542
179,-315.327,241.868,-12.9341,-2.73991,-0.00583256,0.0138433
180,-315.584,241.682,-12.9288,-2.71173,-0.00538354,0.0161399
181,-315.833,241.492,-12.9327,-2.6837,-0.00370393,0.016719
182,-316.08,241.291,-12.9289,-2.65764,-0.0025798,0.016287
183,-316.335,241.061,-12.9256,-2.62984,-0.00129059,0.0143687
184,-316.579,240.829,-12.9264,-2.60443,0.000117381,0.0124904
185,-316.815,240.6,-12.9178,-2.58158,0.00102085,0.00936811
186,-317.047,240.396,-12.926,-2.55983,0.00300473,0.00457666
187,-317.295,240.165,-12.9533,-2.53975,0.00500818,0.00110663
188,-317.534,239.947,-12.9671,-2.52147,0.00497593,0.00208019
189,-317.769,239.698,-12.9651,-2.50335,0.00370526,0.00614918
190,-318,239.459,-12.9789,-2.48712,0.00123677,0.00930011
191,-318.234,239.233,-12.9728,-2.47026,-0.000749511,0.0106639
192,-318.462,238.987,-12.9756,-2.45312,-0.00150201,0.012454
193,-318.676,238.752,-12.9752,-2.43719,-0.000145801,0.0127884
194,-318.903,238.481,-12.9807,-2.41914,-0.000592638,0.0117127
195,-319.121,238.243,-12.9844,-2.40297,-0.00166683,0.0103847
196,-319.341,237.977,-12.9925,-2.38739,-0.00341626,0.00980912
197,-319.566,237.709,-13.0018,-2.37315,-0.00524309,0.00970714
198,-319.806,237.445,-13.0182,-2.35857,-0.00888969,0.0104586
199,-320.055,237.162,-13.0232,-2.34573,-0.0137527,0.011588
200,-320.318,236.848,-13.0159,-2.33493,-0.0193455,0.0110863
201,-320.518,236.548,-13.0159,-2.32493,-0.0243455,0.0105863
