id,x,y,z,yaw,pitch,roll
1,1717.19,1014.47,-0.961305,-2.19021,-0.0370738,0.0340858
2,1716.98,1014.12,-1.03375,-2.19212,-0.0374365,0.0379213
3,1716.76,1013.82,-0.953713,-2.19367,-0.0378479,0.0338478
4,1716.55,1013.5,-0.92277,-2.19505,-0.0383446,0.034303
5,1716.34,1013.22,-0.924292,-2.19681,-0.0399658,0.0359667
6,1716.14,1012.91,-0.886704,-2.19772,-0.0438889,0.035588
7,1715.93,1012.64,-0.819311,-2.19966,-0.0457352,0.0341276
8,1715.72,1012.37,-0.771552,-2.20081,-0.0489631,0.033955
9,1715.51,1012.08,-0.808161,-2.20103,-0.0477183,0.0340395
10,1715.29,1011.8,-0.858296,-2.20109,-0.0455894,0.0340705
11,1715.08,1011.51,-0.849543,-2.20206,-0.0474893,0.0351334
12,1714.87,1011.23,-0.83341,-2.20238,-0.0483472,0.0337498
13,1714.66,1010.93,-0.796033,-2.20391,-0.0501557,0.0366805
14,1714.45,1010.65,-0.799129,-2.20402,-0.0476984,0.0333768
15,1714.25,1010.41,-0.753915,-2.20571,-0.0495572,0.0329975
16,1714.01,1010.11,-0.793134,-2.20597,-0.0521072,0.0318394
17,1713.82,1009.83,-0.813025,-2.2067,-0.0509628,0.0331939
18,1713.62,1009.55,-0.821205,-2.20817,-0.053143,0.0368161
19,1713.39,1009.28,-0.746682,-2.20871,-0.0518813,0.0320619
20,1713.2,1009.02,-0.704693,-2.20899,-0.0495656,0.0332995
21,1713.01,1008.75,-0.681589,-2.20916,-0.047463,0.0291619
22,1712.8,1008.42,-0.780328,-2.20769,-0.0419111,0.0306908
23,1712.58,1008.15,-0.781413,-2.20758,-0.042795,0.0308306
24,1712.37,1007.87,-0.756841,-2.20847,-0.04632,0.0317237
25,1712.16,1007.58,-0.76981,-2.20874,-0.0470415,0.0328501
26,1711.94,1007.32,-0.798408,-2.20958,-0.0519952,0.0329148
27,1711.74,1007.04,-0.776869,-2.21004,-0.0524182,0.0320969
28,1711.56,1006.82,-0.741907,-2.21145,-0.0541512,0.0306452
29,1711.34,1006.56,-0.721778,-2.21136,-0.0549245,0.0300216
30,1711.12,1006.26,-0.697145,-2.21076,-0.0555372,0.0291539
31,1710.92,1006.01,-0.656692,-2.21051,-0.0563964,0.0273336
32,1710.74,1005.77,-0.606988,-2.21055,-0.0568755,0.0252933
33,1710.54,1005.52,-0.570177,-2.20988,-0.0577087,0.0239599
34,1710.34,1005.26,-0.507935,-2.20958,-0.0572174,0.0225548
35,1710.16,1005.04,-0.409387,-2.20813,-0.0525013,0.0203017
36,1709.94,1004.75,-0.387399,-2.20682,-0.0532409,0.0192264
37,1709.73,1004.49,-0.500601,-2.20295,-0.0402965,0.0100665
38,1709.55,1004.22,-0.505526,-2.20143,-0.0412045,0.0105124
39,1709.36,1003.96,-0.517694,-2.19964,-0.042236,0.0106729
40,1709.18,1003.71,-0.53594,-2.19818,-0.0412749,0.0099836
41,1709.01,1003.47,-0.522515,-2.19692,-0.042381,0.00958133
42,1708.66,1003,-0.535435,-2.19392,-0.0436438,0.00965167
43,1708.44,1002.74,-0.550549,-2.19233,-0.0473204,0.000746355
44,1708.24,1002.46,-0.551867,-2.18992,-0.0474692,0.000555745
45,1708.05,1002.21,-0.55348,-2.18872,-0.0478344,0.00265182
46,1707.88,1001.94,-0.623005,-2.18624,-0.0476393,0.00601716
47,1707.71,1001.7,-0.617766,-2.18489,-0.0467611,0.00373305
48,1707.53,1001.45,-0.629255,-2.18182,-0.0461143,0.00313402
49,1707.33,1001.19,-0.616512,-2.18014,-0.0468434,0.00118725
50,1707.17,1000.99,-0.569743,-2.17854,-0.0476749,0.00147288
51,1707.01,1000.75,-0.555211,-2.17676,-0.0485082,0.00332031
52,1706.83,1000.51,-0.539954,-2.17477,-0.0493379,0.00280873
53,1706.69,1000.3,-0.532511,-2.17358,-0.0503427,0.00404269
54,1706.54,1000.09,-0.509698,-2.17176,-0.0513592,0.00487497
55,1706.37,999.848,-0.520407,-2.16951,-0.0517651,0.00436517
56,1706.19,999.615,-0.507585,-2.16724,-0.0523101,0.00287089
57,1706.06,999.421,-0.524329,-2.16657,-0.0531939,0.0043987
58,1705.89,999.152,-0.541594,-2.16418,-0.0540605,0.00571925
59,1705.74,998.94,-0.552735,-2.16248,-0.0525407,0.00442416
60,1705.58,998.698,-0.596902,-2.15914,-0.0474358,-0.00124362
61,1705.44,998.514,-0.575803,-2.15731,-0.046524,-0.00373229
62,1705.26,998.255,-0.569618,-2.15487,-0.0478038,-0.0015787
63,1705.17,998.089,-0.578141,-2.15353,-0.0475805,-0.000826052
64,1704.97,997.794,-0.543338,-2.15041,-0.0483512,-0.00176156
65,1704.87,997.625,-0.560197,-2.14961,-0.0480141,1.61332e-05
66,1704.67,997.337,-0.534561,-2.14728,-0.0488551,-0.00173939
67,1704.54,997.131,-0.527965,-2.14666,-0.0494796,0.000852641
68,1704.4,996.892,-0.563716,-2.14322,-0.0488986,0.00112117
69,1704.26,996.684,-0.567113,-2.142,-0.0489071,0.0015607
70,1704.08,996.379,-0.60665,-2.13923,-0.0489197,0.00496902
71,1703.95,996.175,-0.574243,-2.13806,-0.0499799,0.00423506
72,1703.8,995.904,-0.609524,-2.13619,-0.0499041,0.00702612
73,1703.66,995.69,-0.648957,-2.13538,-0.0515902,0.00900176
74,1703.56,995.418,-0.844469,-2.13346,-0.0526772,0.0246418
75,1703.41,995.18,-0.839701,-2.13141,-0.0539439,0.0270653
76,1703.24,994.943,-0.81579,-2.13053,-0.0541454,0.0269915
77,1702.93,994.455,-0.768786,-2.1283,-0.0556882,0.0271853
78,1702.69,994.125,-0.786311,-2.1277,-0.0563337,0.0300805
79,1702.6,993.911,-0.783365,-2.12619,-0.0561966,0.0328858
80,1702.46,993.651,-0.782927,-2.12566,-0.0567983,0.0329978
81,1702.39,993.567,-0.760185,-2.12649,-0.0570036,0.0309678
82,1702.15,993.197,-0.762825,-2.12638,-0.0583475,0.0308667
83,1701.99,992.925,-0.793436,-2.12609,-0.0596316,0.0318274
84,1701.81,992.701,-0.711393,-2.12825,-0.0602746,0.0268786
85,1701.66,992.49,-0.641188,-2.13009,-0.0612309,0.0214581
86,1701.49,992.227,-0.654356,-2.12963,-0.0611871,0.0232643
87,1701.39,991.834,-0.823215,-2.12008,-0.0517946,0.0209914
88,1701.23,991.61,-0.851373,-2.12158,-0.0515925,0.0234013
89,1701.11,991.399,-0.811908,-2.12232,-0.0527492,0.0242352
90,1700.94,991.094,-0.897536,-2.12424,-0.0507995,0.0291127
91,1700.78,990.874,-0.886618,-2.12508,-0.0469447,0.0190866
92,1700.58,990.558,-0.857703,-2.1259,-0.0469051,0.0165368
93,1700.38,990.228,-0.876302,-2.12793,-0.0471517,0.0187787
94,1700.29,989.973,-0.983115,-2.12842,-0.0391566,0.0319461
95,1700.17,989.782,-0.95054,-2.13263,-0.0368205,0.0350288
96,1699.97,989.446,-0.94071,-2.13358,-0.0388031,0.038647
97,1699.86,989.272,-0.935308,-2.13693,-0.0373704,0.0428604
98,1699.71,989.07,-0.940685,-2.13885,-0.0375888,0.041052
99,1699.56,988.785,-1.10868,-2.14004,-0.0102134,0.0421418
100,1699.4,988.525,-1.12928,-2.14152,-0.00740844,0.0466135
101,1699.23,988.273,-1.14245,-2.14448,-0.0080215,0.0452009
102,1699.13,988.063,-1.15367,-2.14636,-0.00451624,0.0513459
103,1698.97,987.842,-1.15154,-2.14871,-0.00195494,0.0507504
104,1698.81,987.561,-1.18154,-2.14969,-0.000845104,0.0517912
105,1698.69,987.423,-1.15874,-2.15368,0.000538548,0.0526865
106,1698.42,987.023,-1.1294,-2.15328,-0.00204635,0.0517134
107,1698.31,986.858,-1.12882,-2.15617,-0.00217191,0.050608
108,1698.17,986.646,-1.15829,-2.15693,-0.00118829,0.0512338
109,1697.9,986.261,-1.14172,-2.16026,-0.00177547,0.0511344
110,1697.83,986.177,-1.11899,-2.16255,-0.00349528,0.0493012
111,1697.62,985.891,-1.11607,-2.16475,-0.00542933,0.0485045
112,1697.41,985.573,-1.12932,-2.16537,-0.00493863,0.0471733
113,1697.35,985.48,-1.12475,-2.16795,-0.00508353,0.0474762
114,1697.17,985.224,-1.13474,-2.16923,-0.00325017,0.0485459
115,1697.04,985.054,-1.10641,-2.17262,-0.00620247,0.0472421
116,1696.89,984.817,-1.10592,-2.17336,-0.00629509,0.0471609
117,1696.66,984.492,-1.10222,-2.17642,-0.00751288,0.0457709
118,1696.56,984.354,-1.10821,-2.17737,-0.00610912,0.0481852
119,1696.4,984.13,-1.09296,-2.18071,-0.00756528,0.0483063
120,1696.31,984.036,-1.07443,-2.18139,-0.00853468,0.0457161
121,1696.11,983.734,-1.08721,-2.18381,-0.00894295,0.0460342
122,1695.96,983.517,-1.08689,-2.1846,-0.00892918,0.0470977
123,1695.81,983.317,-1.098,-2.18746,-0.00945112,0.0474115
124,1695.68,983.119,-1.10047,-2.18826,-0.0097739,0.0477793
125,1695.57,982.981,-1.10779,-2.19038,-0.00995037,0.0466256
126,1695.41,982.737,-1.10603,-2.18972,-0.00989725,0.0468139
127,1695.27,982.546,-1.11491,-2.19138,-0.0100167,0.0467097
128,1695.07,982.243,-1.12226,-2.19136,-0.0107998,0.0475648
129,1694.93,982.079,-1.1236,-2.19209,-0.0108364,0.0482284
130,1694.83,981.933,-1.12866,-2.1928,-0.0110377,0.0480832
131,1694.65,981.683,-1.12852,-2.19373,-0.0115774,0.0488599
132,1694.5,981.392,-1.29507,-2.19541,-0.0109654,0.0618978
133,1694.42,981.229,-1.34804,-2.19532,-0.00950033,0.0666318
134,1694.26,981.045,-1.30921,-2.19816,-0.00986587,0.0645465
135,1694.15,980.909,-1.31261,-2.19898,-0.0101039,0.0651429
136,1693.99,980.627,-1.37155,-2.19926,-0.011482,0.0716416
137,1693.88,980.561,-1.37515,-2.20288,-0.0118428,0.0727409
138,1693.68,980.318,-1.34327,-2.20405,-0.00969143,0.0675074
139,1693.56,980.186,-1.33319,-2.20564,-0.00920069,0.0668936
140,1693.45,980.071,-1.34368,-2.20711,-0.0103985,0.0690116
141,1693.24,979.819,-1.31258,-2.20729,-0.00860482,0.0664291
142,1693.14,979.671,-1.32216,-2.20686,-0.0104389,0.0692706
143,1693.02,979.404,-1.28406,-2.20726,-0.0181375,0.0843559
144,1692.83,979.186,-1.27626,-2.20694,-0.0192871,0.0850488
145,1692.74,979.05,-1.27322,-2.2065,-0.018556,0.0838824
146,1692.57,978.873,-1.26337,-2.20652,-0.0195163,0.0823122
147,1692.45,978.675,-1.25292,-2.20606,-0.02036,0.0828309
148,1692.26,978.438,-1.26131,-2.20539,-0.0207739,0.0826318
149,1692.23,978.374,-1.25394,-2.20386,-0.0208572,0.0818723
150,1691.98,978.064,-1.24801,-2.20274,-0.0196917,0.0817652
151,1691.82,977.802,-1.22213,-2.20022,-0.0207311,0.0826167
152,1691.71,977.661,-1.21143,-2.19935,-0.0210586,0.0820991
153,1691.54,977.419,-1.21254,-2.19781,-0.0209443,0.0815024
154,1691.42,977.264,-1.20313,-2.19702,-0.0211013,0.081396
155,1691.29,977.092,-1.20301,-2.1954,-0.0216324,0.080382
156,1691.07,976.811,-1.21243,-2.1943,-0.0217012,0.0806221
157,1691,976.697,-1.1894,-2.19203,-0.0207659,0.0781266
158,1690.85,976.525,-1.19849,-2.19099,-0.0213821,0.0780835
159,1690.67,976.236,-1.19606,-2.18754,-0.0202363,0.0777089
160,1690.49,975.968,-1.18111,-2.1874,-0.020652,0.0795423
161,1690.36,975.851,-1.21232,-2.18466,-0.0181847,0.0706333
162,1690.19,975.615,-1.19327,-2.18297,-0.0188984,0.071571
163,1690.14,975.495,-1.19811,-2.18103,-0.0201632,0.0738154
164,1690.06,975.426,-1.17129,-2.17953,-0.0208868,0.0754492
165,1689.89,975.159,-1.14948,-2.17752,-0.0218301,0.0774808
166,1689.71,974.918,-1.14154,-2.17529,-0.0213956,0.0762576
167,1689.51,974.694,-1.01982,-2.173,-0.0236542,0.064161
168,1689.45,974.56,-1.05243,-2.17039,-0.0217516,0.0636054
169,1689.36,974.42,-1.06083,-2.16837,-0.0218385,0.0622834
170,1689.21,974.202,-1.02781,-2.16706,-0.0231008,0.0626704
171,1689.03,973.929,-1.00347,-2.16384,-0.0252022,0.0602325
172,1688.86,973.683,-1.07693,-2.16294,-0.0220431,0.0586006
173,1688.72,973.465,-0.982908,-2.16032,-0.0268952,0.0631295
174,1688.64,973.368,-1.0005,-2.15886,-0.0246168,0.0615387
175,1688.43,973.076,-1.03495,-2.15603,-0.0228702,0.0591525
176,1688.36,972.969,-0.977888,-2.15431,-0.0270405,0.0619108
177,1688.17,972.696,-0.961935,-2.15195,-0.0256686,0.0607304
178,1687.98,972.427,-0.962145,-2.15188,-0.0296946,0.0635851
179,1687.85,972.242,-0.927584,-2.15073,-0.0291645,0.0619227
180,1687.64,971.953,-0.966774,-2.15095,-0.0320885,0.0583588
181,1687.53,971.837,-0.954347,-2.14817,-0.0302084,0.0461873
182,1687.39,971.599,-0.968397,-2.14693,-0.0299676,0.045756
183,1687.27,971.397,-0.975769,-2.14343,-0.0301388,0.0453012
184,1687.17,971.261,-0.965752,-2.14286,-0.0308472,0.045184
185,1687.01,971.018,-0.967201,-2.14181,-0.0314522,0.0439375
186,1686.92,970.861,-0.953527,-2.14111,-0.0321206,0.0455695
187,1686.81,970.678,-0.951901,-2.14057,-0.0300914,0.0457205
188,1686.65,970.49,-0.951467,-2.13866,-0.0302292,0.045794
189,1686.54,970.302,-0.988474,-2.13775,-0.0284857,0.0462675
190,1686.4,970.101,-1.02132,-2.13844,-0.0253948,0.0396529
191,1686.3,969.596,-1.05632,-2.15158,-0.0251951,0.0353825
192,1686.2,969.432,-1.08045,-2.15029,-0.0344713,0.0340438
193,1686.05,969.249,-0.985519,-2.15037,-0.0356368,0.0228061
194,1685.95,969.112,-0.982659,-2.14886,-0.0353318,0.0222857
195,1685.88,968.958,-0.999972,-2.14653,-0.0359178,0.0213097
196,1685.71,968.777,-1.00754,-2.14647,-0.0359004,0.0207758
197,1685.61,968.617,-1.01342,-2.14419,-0.034608,0.0204574
198,1685.49,968.434,-1.00655,-2.14413,-0.0339838,0.0193766
199,1685.39,968.273,-0.994527,-2.14217,-0.036068,0.0208711
200,1685.27,968.106,-0.976256,-2.14213,-0.0346726,0.0203988
201,1685.17,967.929,-0.987409,-2.14003,-0.0354015,0.0212126
202,1685.05,967.761,-1.00449,-2.1394,-0.0337308,0.0209991
203,1684.95,967.584,-0.977138,-2.1372,-0.0348751,0.0215784
204,1684.84,967.414,-0.968861,-2.13682,-0.0353053,0.0210062
205,1684.73,967.228,-0.966197,-2.13539,-0.0354841,0.0211123
206,1684.62,967.072,-0.961826,-2.13467,-0.0354869,0.0204837
207,1684.47,966.864,-0.949166,-2.13366,-0.0351584,0.0207208
208,1684.38,966.71,-0.965499,-2.13194,-0.0368319,0.0213753
209,1684.28,966.527,-0.949628,-2.13027,-0.0363195,0.0224619
210,1684.16,966.381,-0.962129,-2.12935,-0.0373954,0.0225924
211,1684.08,966.219,-0.959105,-2.12727,-0.0369762,0.022822
212,1683.95,966.025,-0.953222,-2.12661,-0.0373195,0.0242512
213,1683.84,965.843,-0.957919,-2.12571,-0.0387497,0.0242899
214,1683.73,965.652,-0.928341,-2.12428,-0.0408007,0.0248089
215,1683.59,965.454,-0.916238,-2.12281,-0.0408661,0.0248433
216,1683.48,965.292,-0.930976,-2.12259,-0.0407814,0.0238469
217,1683.35,965.069,-0.93024,-2.12083,-0.0410044,0.0246671
218,1683.29,964.985,-0.913543,-2.11922,-0.0401172,0.0243463
219,1683.18,964.76,-0.925139,-2.11854,-0.041536,0.0245017
220,1683.04,964.519,-0.888888,-2.11715,-0.0428951,0.0270909
221,1682.93,964.353,-0.880721,-2.11532,-0.042833,0.0272986
222,1682.78,964.152,-0.886281,-2.11534,-0.0426312,0.0262918
223,1682.68,963.922,-0.885094,-2.11284,-0.0426812,0.0266876
224,1682.56,963.737,-0.863878,-2.11326,-0.0436066,0.027113
225,1682.41,963.506,-0.868467,-2.11273,-0.0445204,0.0273229
226,1682.29,963.291,-0.85434,-2.11183,-0.045728,0.0269918
227,1682.2,963.134,-0.875511,-2.11006,-0.0422123,0.027268
228,1682.06,962.887,-0.876352,-2.1093,-0.0453269,0.0272741
229,1681.91,962.67,-0.869634,-2.10838,-0.0448122,0.0283501
230,1681.74,962.405,-0.874464,-2.10919,-0.0445463,0.0261991
231,1681.62,962.212,-0.853351,-2.10857,-0.040087,0.0275257
232,1681.5,961.985,-0.847032,-2.10826,-0.0362067,0.0283388
233,1681.36,961.77,-0.813737,-2.10777,-0.0333293,0.0289307
234,1681.19,961.515,-0.824688,-2.10751,-0.0362353,0.0279703
235,1681.06,961.272,-0.839323,-2.10718,-0.0359958,0.0280778
236,1680.95,961.053,-0.793592,-2.10729,-0.0373753,0.0321139
237,1680.78,960.814,-0.822336,-2.10673,-0.0385618,0.0298623
238,1680.64,960.578,-0.823252,-2.10733,-0.0408504,0.0309265
239,1680.51,960.32,-0.853184,-2.10611,-0.042041,0.0299236
240,1680.38,960.11,-0.843156,-2.107,-0.0389101,0.0296326
241,1680.21,959.817,-0.820779,-2.10798,-0.0399719,0.0315684
242,1680.06,959.55,-0.875484,-2.10781,-0.0380995,0.0277515
243,1679.94,959.296,-0.834042,-2.10866,-0.0396029,0.0289659
244,1679.72,959.12,-0.967316,-2.10972,-0.0274766,0.00603125
245,1679.59,958.859,-0.976367,-2.11093,-0.0276158,0.0090668
246,1679.47,958.611,-1.03845,-2.11164,-0.0260227,0.0141259
247,1679.39,958.46,-1.13962,-2.11072,-0.00920459,0.0220415
248,1679.23,958.208,-1.14918,-2.11098,-0.00967521,0.0186299
249,1679.1,957.957,-1.14045,-2.11094,-0.0106738,0.0197774
250,1678.94,957.713,-1.12367,-2.11182,-0.0135495,0.0214135
251,1678.78,957.493,-1.12409,-2.11389,-0.0152829,0.0224635
252,1678.64,957.291,-1.06829,-2.11494,-0.0186431,0.0210874
253,1678.5,957.091,-1.14788,-2.11746,-0.0177385,0.0170046
254,1678.31,956.927,-0.971413,-2.11663,-0.0229639,0.000709598
255,1678.13,956.644,-0.860681,-2.11884,-0.0302438,-0.00163736
256,1677.97,956.422,-0.845822,-2.11898,-0.0311856,-0.00118388
257,1677.83,956.198,-0.843234,-2.12037,-0.0308491,-0.0012803
258,1677.72,955.955,-0.865493,-2.12194,-0.0313766,-0.00329497
259,1677.58,955.694,-0.835178,-2.12442,-0.0311709,-0.00183346
260,1677.44,955.431,-0.873977,-2.12475,-0.029264,-0.000130884
261,1677.27,955.177,-0.859673,-2.12529,-0.029842,0.000683719
262,1677.11,954.93,-0.843554,-2.12519,-0.0301575,0.00192961
263,1676.97,954.7,-0.740255,-2.12514,-0.0332303,0.00499912
264,1676.81,954.453,-0.665048,-2.1259,-0.0378701,0.00668598
265,1676.65,954.218,-0.548992,-2.12655,-0.0403052,0.00929181
266,1676.51,954,-0.556588,-2.12671,-0.0398094,0.00925436
267,1676.35,953.813,-0.568793,-2.12752,-0.0368518,0.00262636
268,1676.21,953.566,-0.5525,-2.12723,-0.0370675,-0.000562792
269,1676.07,953.335,-0.55052,-2.12777,-0.0387575,0.000949975
270,1675.92,953.059,-0.681427,-2.12806,-0.0439509,0.00629048
271,1675.82,952.86,-0.674254,-2.12903,-0.0436636,0.00734209
272,1675.65,952.594,-0.656071,-2.12803,-0.0446087,0.0126178
273,1675.53,952.384,-0.668991,-2.12755,-0.0425687,0.0161633
274,1675.38,952.165,-0.660626,-2.12863,-0.0431364,0.0174823
275,1675.21,951.94,-0.634297,-2.12871,-0.0438742,0.0186163
276,1675.08,951.703,-0.55779,-2.12732,-0.0462983,0.0239637
277,1674.94,951.483,-0.573019,-2.12671,-0.0464582,0.0233485
278,1674.79,951.245,-0.543635,-2.12579,-0.0493127,0.0238943
279,1674.65,951.02,-0.515868,-2.12323,-0.0507263,0.0242957
280,1674.5,950.78,-0.48408,-2.12076,-0.0505662,0.0252027
281,1674.36,950.538,-0.48248,-2.11693,-0.0514119,0.0256948
282,1674.23,950.325,-0.50364,-2.11268,-0.0477712,0.0232211
283,1674.08,950.068,-0.542203,-2.10645,-0.0439424,0.0235294
284,1673.93,949.836,-0.533899,-2.10034,-0.0395732,0.0268179
285,1673.83,949.635,-0.498101,-2.09322,-0.0380111,0.0266111
286,1673.72,949.374,-0.567702,-2.0875,-0.0381048,0.0341571
287,1673.6,949.137,-0.555665,-2.07691,-0.037836,0.0348926
288,1673.43,948.891,-0.597917,-2.07077,-0.0391462,0.0345673
289,1673.3,948.635,-0.569785,-2.05951,-0.0389681,0.0348054
290,1673.13,948.411,-0.579969,-2.0532,-0.0413841,0.0334155
291,1673.03,948.155,-0.531986,-2.03903,-0.0428824,0.0341606
292,1672.91,947.94,-0.575336,-2.03268,-0.0467247,0.0319812
293,1672.79,947.643,-0.647125,-2.01801,-0.0488966,0.0301004
294,1672.65,947.473,-0.534216,-2.00967,-0.0410347,0.0176623
295,1672.55,947.202,-0.520412,-1.99468,-0.0422739,0.0176993
296,1672.45,947.002,-0.529239,-1.98608,-0.0417821,0.0192636
297,1672.32,946.722,-0.549142,-1.97137,-0.039764,0.0186837
298,1672.2,946.49,-0.541648,-1.95793,-0.0405611,0.0195374
299,1672.08,946.168,-0.495377,-1.94003,-0.0425424,0.0205392
300,1671.97,945.957,-0.474253,-1.93088,-0.0428767,0.019887
301,1671.87,945.625,-0.472872,-1.91339,-0.0433601,0.0189304
302,1671.78,945.428,-0.461104,-1.90309,-0.0441856,0.0195344
303,1671.69,945.104,-0.442706,-1.88391,-0.045936,0.0195433
304,1671.59,944.872,-0.451226,-1.87335,-0.0496994,0.0209971
305,1671.21,944.893,-0.468057,-1.86428,-0.0404101,0.0101704
306,1671.11,944.701,-0.446445,-1.8516,-0.041512,0.00918157
307,1671.07,944.367,-0.486858,-1.83142,-0.0414107,0.01087
308,1670.97,944.089,-0.493496,-1.81853,-0.042906,0.011439
309,1670.93,943.824,-0.39656,-1.79686,-0.0436133,0.0141778
310,1670.92,943.595,-0.155309,-1.78486,-0.0460322,0.0245695
311,1670.83,943.335,-0.193203,-1.76402,-0.0411936,0.0205418
312,1671.03,942.77,-0.220952,-1.74147,-0.0467809,0.0243089
313,1670.99,942.423,-0.215007,-1.71942,-0.0485829,0.024666
314,1670.92,942.191,-0.196381,-1.70795,-0.0484108,0.026577
315,1670.61,942.165,-0.18112,-1.69557,-0.0494364,0.0216076
316,1670.57,941.958,-0.125158,-1.68219,-0.0492662,0.0203613
317,1670.54,941.709,-0.182162,-1.66158,-0.0466626,0.0183076
318,1670.54,941.368,-0.158467,-1.64513,-0.0520954,0.0189867
319,1670.51,941.144,-0.167966,-1.6253,-0.0483615,0.0200096
320,1670.46,940.865,-0.126933,-1.61183,-0.0507167,0.0202705
321,1670.46,940.517,-0.120741,-1.58921,-0.0503746,0.0184982
322,1670.68,939.913,0.0298331,-1.56643,-0.0511738,0.0112518
323,1670.72,939.625,0.00264038,-1.54342,-0.0515561,0.0103428
324,1670.7,939.373,-0.0392222,-1.531,-0.0520506,0.0092588
325,1670.75,939.053,-0.041052,-1.50686,-0.0521482,0.00788162
326,1670.76,938.819,-0.0249099,-1.49494,-0.0533721,0.00797766
327,1670.55,938.839,-0.158418,-1.48168,-0.051267,0.00996257
328,1670.5,938.645,-0.0499179,-1.4694,-0.049856,0.00386212
329,1670.54,938.32,-0.0833988,-1.44588,-0.0479312,0.00196884
330,1670.5,938.095,-0.0663155,-1.43284,-0.0475199,0.00249314
331,1670.54,937.768,-0.0951748,-1.40913,-0.0473806,0.00267414
332,1670.57,937.504,-0.0756348,-1.39808,-0.0472564,-0.000572899
333,1670.62,937.176,-0.0600612,-1.37532,-0.0484684,-0.000324156
334,1670.66,936.966,-0.0181932,-1.36321,-0.0389261,0.00594597
335,1670.75,936.692,-0.0013124,-1.3425,-0.0398611,0.00723493
336,1670.83,936.488,0.0137154,-1.33072,-0.0402716,0.00953185
